1.06 
1.08
1.02
1.01
1.06
1.05
1.03
1.11
1.08
1.05
1.08
1.11
1.10
1.09
1.09
1.05
1.02
1.04
1.07
1.01
1.01
1.05
1.05
1.05
1.03
1.04
1.03
1.03
1.07
1.06
1.05
1.13
1.09
1.06
1.09
1.13
1.11
1.08
1.07
1.04
1.01
1.05
1.07
1.00
0.99
1.03
1.08
1.08
1.06
1.05
1.03
1.03
1.06
1.05
1.04
1.13
1.09
1.05
1.08
1.12
1.11
1.07
1.06
1.03
1.00
1.05
1.08
1.03
1.01
1.05
1.07
1.07
1.05
1.04
1.03
1.02
1.06
1.05
1.03
1.11
1.09
1.06
1.09
1.13
1.12
1.08
1.08
1.04
1.01
1.04
1.07
1.01
1.00
1.05
1.06
1.05
1.04
1.05
1.03
1.03
1.07
1.05
1.13
1.09
1.04
1.08
1.11
1.10
1.08
1.07
1.05
1.01
1.04
1.07
1.02
1.01
1.04
1.05
1.09
1.07
1.06
1.03
1.03
1.06
1.05
1.05
1.12
1.09
1.04
1.08
1.12
1.09
1.07
1.05
1.05
1.03
1.05
1.08
1.03
1.02
1.06
1.07
1.08
1.06
1.05
1.02
1.00
1.04
1.03
1.02
1.10
1.08
1.05
1.08
1.12
1.11
1.09
1.08
1.05
1.02
1.04
1.06
1.01
1.01
1.05
1.07
1.08
1.06
1.06
1.01
1.01
1.05
1.07
1.06
1.13
1.10
1.05
1.08
1.11
1.09
1.07
1.07
1.04
1.01
1.04
1.06
1.02
1.01
1.05
1.05
1.06
1.05
1.05
1.03
1.02
1.06
1.05
1.04
1.12
1.09
1.05
1.09
1.10
1.07
1.07
1.05
1.01
1.03
1.05
1.03
1.02
1.06
1.07
1.08
1.05
1.05
1.02
1.02
1.05
1.06
1.04
1.11
1.09
1.04
1.08
1.12
1.11
1.08
1.07
1.03
1.00
1.05
1.08
1.03
1.01
1.05
1.06
1.08
1.04
1.05
1.02
1.01
1.06
1.04
1.03
1.10
1.09
1.04
1.07
1.14
1.12
1.09
1.09
1.05
1.02
1.04
1.07
1.01
1.01
1.04
1.06
1.07
1.05
1.04
1.02
1.01
1.05
1.03
1.04
1.12
1.09
1.05
1.08
1.12
1.11
1.09
1.06
1.03
1.00
1.04
1.05
1.01
1.00
1.04
1.06
1.06
1.05
1.06
1.03
1.02
1.06
1.05
1.04
1.11
1.10
1.05
1.09
1.13
1.12
1.08
1.07
1.04
1.07
1.08
1.02
1.01
1.04
1.06
1.07
1.05
1.05
1.03
1.02
1.05
1.05
1.04
1.12
1.11
1.05
1.07
1.11
1.09
1.07
1.07
1.07
1.02
1.05
1.08
1.03
1.00
1.04
1.06
1.07
1.05
1.04
1.02
1.01
1.04
1.05
1.05
1.13
1.11
1.06
1.08
1.13
1.12
1.09
1.08
1.06
1.01
1.05
1.07
1.02
1.00
1.04
1.06
1.08
1.05
1.03
1.01
1.00
1.06
1.06
1.04
1.11
1.10
1.04
1.07
1.12
1.12
1.07
1.07
1.05
1.01
1.02
1.05
1.01
1.01
1.06
1.07
1.08
1.05
1.05
1.03
1.02
1.05
1.05
1.04
1.12
1.10
1.04
1.07
1.11
1.11
1.08
1.07
1.03
1.01
1.05
1.08
1.02
1.01
1.06
1.08
1.05
1.05
1.01
1.00
1.04
1.04
1.03
1.10
1.10
1.05
1.08
1.13
1.13
1.09
1.08
1.05
1.01
1.03
1.06
1.02
1.01
1.05
1.06
1.08
1.06
1.03
1.01
1.02
1.07
1.07
1.05
1.12
1.10
1.05
1.08
1.13
1.11
1.08
1.07
1.05
1.01
1.04
1.07
1.02
1.01
1.05
1.06
1.08
1.04
1.03
1.01
1.01
1.07
1.07
1.05
1.12
1.10
1.05
1.07
1.11
1.10
1.07
1.07
1.06
1.01
1.02
1.05
1.00
1.01
1.05
1.06
1.08
1.05
1.05
1.03
1.02
1.05
1.05
1.04
1.11
1.10
1.04
1.05
1.09
1.10
1.07
1.09
1.07
1.03
1.04
1.08
1.03
1.01
1.05
1.06
1.08
1.06
1.05
1.02
1.05
1.04
1.02
1.10
1.11
1.05
1.09
1.12
1.11
1.08
1.08
1.06
1.02
1.04
1.06
1.02
1.01
1.04
1.05
1.08
1.06
1.05
1.02
1.00
1.06
1.06
1.04
1.11
1.10
1.05
1.08
1.13
1.11
1.07
1.06
1.05
1.02
1.03
1.06
1.01
1.00
1.06
1.06
1.08
1.05
1.04
1.01
1.01
1.05
1.05
1.03
1.10
1.11
1.06
1.08
1.13
1.11
1.07
1.06
1.07
1.03
1.05
1.08
1.03
1.00
1.04
1.05
1.08
1.05
1.04
1.02
1.01
1.05
1.05
1.04
1.11
1.11
1.05
1.07
1.10
1.10
1.07
1.08
1.07
1.02
1.05
1.07
1.03
1.00
1.04
1.06
1.09
1.04
1.04
1.01
0.98
1.04
1.05
1.04
1.13
1.06
1.08
1.13
1.12
1.09
1.07
1.07
1.01
1.04
1.07
1.03
1.00
1.05
1.06
1.07
1.04
1.04
1.04
1.03
1.06
1.05
1.04
1.10
1.11
1.05
1.07
1.11
1.11
1.08
1.07
1.05
1.00
1.03
1.05
1.01
1.00
1.06
1.06
1.08
1.04
1.04
1.02
1.01
1.04
1.05
1.03
1.11
1.11
1.05
1.08
1.13
1.12
1.09
1.08
1.05
1.03
1.06
1.07
1.02
1.00
1.04
1.05
1.08
1.04
1.01
0.99
0.99
1.02
1.03
1.02
1.09
1.10
1.05
1.07
1.13
1.13
1.08
1.07
1.06
1.02
1.04
1.08
1.04
1.01
1.06
1.06
1.09
1.06
1.06
1.02
1.01
1.07
1.08
1.06
1.12
1.13
1.06
1.07
1.11
1.07
1.06
1.04
1.00
1.02
1.05
1.00
0.97
1.02
1.06
1.09
1.05
1.03
1.01
1.00
1.03
1.04
1.03
1.10
1.11
1.06
1.08
1.13
1.12
1.09
1.09
1.07
1.01
1.04
1.09
1.04
1.01
1.07
1.06
1.08
1.06
1.06
1.04
1.02
1.07
1.07
1.04
1.10
1.11
1.05
1.07
1.09
1.10
1.08
1.09
1.07
1.03
1.05
1.08
1.05
1.02
1.07
1.07
1.09
1.06
1.05
1.02
1.01
1.04
1.04
1.02
1.12
1.13
1.07
1.09
1.12
1.12
1.07
1.07
1.06
1.01
1.02
1.06
1.01
0.99
1.03
1.03
1.06
1.03
1.04
1.00
1.00
1.04
1.05
1.03
1.10
1.12
1.05
1.07
1.12
1.12
1.09
1.06
1.04
1.00
1.06
1.02
1.00
1.06
1.07
1.09
1.05
1.05
1.03
1.02
1.05
1.05
1.03
1.10
1.13
1.06
1.09
1.12
1.13
1.08
1.07
1.06
1.02
1.04
1.08
1.04
1.00
1.04
1.05
1.08
1.04
1.04
1.02
1.01
1.05
1.06
1.04
1.09
1.11
1.04
1.06
1.13
1.14
1.09
1.08
1.06
1.02
1.03
1.07
1.03
1.00
1.05
1.06
1.09
1.04
1.03
1.00
0.99
1.03
1.02
1.01
1.09
1.13
1.06
1.07
1.11
1.12
1.09
1.09
1.07
1.02
1.04
1.08
1.04
1.00
1.03
1.04
1.08
1.06
1.07
1.05
1.03
1.06
1.07
1.05
1.11
1.12
1.05
1.07
1.11
1.11
1.08
1.07
1.06
1.01
1.01
1.04
1.01
1.00
1.04
1.09
1.05
1.05
1.03
1.01
1.05
1.05
1.04
1.10
1.12
1.05
1.06
1.10
1.13
1.09
1.08
1.07
1.02
1.04
1.07
1.04
1.00
1.03
1.03
1.08
1.04
1.04
1.02
1.02
1.07
1.07
1.05
1.09
1.11
1.04
1.08
1.12
1.13
1.08
1.08
1.06
1.01
1.04
1.08
1.04
1.00
1.05
1.06
1.09
1.04
1.05
1.03
1.01
1.06
1.06
1.05
1.11
1.13
1.05
1.06
1.11
1.12
1.08
1.07
1.06
1.01
1.04
1.07
1.04
0.98
1.03
1.04
1.08
1.04
1.05
1.04
1.02
1.06
1.06
1.04
1.10
1.12
1.05
1.06
1.10
1.12
1.07
1.06
1.05
1.01
1.05
1.08
1.05
1.00
1.04
1.05
1.09
1.05
1.05
1.03
1.05
1.06
1.03
1.09
1.11
1.04
1.08
1.12
1.14
1.09
1.08
1.07
1.02
1.03
1.06
1.03
0.99
1.04
1.05
1.08
1.05
1.05
1.03
1.00
1.04
1.04
1.03
1.11
1.14
1.06
1.07
1.11
1.13
1.08
1.07
1.06
1.01
1.03
1.07
1.03
1.00
1.04
1.05
1.06
1.05
1.06
1.04
1.02
1.05
1.05
1.05
1.09
1.12
1.05
1.07
1.10
1.11
1.07
1.06
1.06
1.00
1.02
1.06
1.02
1.00
1.04
1.06
1.09
1.05
1.04
1.01
0.99
1.03
1.05
1.03
1.09
1.12
1.04
1.05
1.10
1.14
1.09
1.09
1.08
1.02
1.04
1.08
1.04
1.00
1.05
1.06
1.09
1.05
1.06
1.02
1.01
1.04
1.06
1.04
1.10
1.04
1.05
1.10
1.13
1.09
1.09
1.08
1.02
1.03
1.07
1.03
0.99
1.02
1.03
1.07
1.04
1.02
1.00
0.98
1.03
1.05
1.05
1.11
1.13
1.06
1.07
1.12
1.13
1.09
1.08
1.08
1.04
1.04
1.09
1.05
1.01
1.04
1.05
1.10
1.08
1.09
1.06
1.04
1.07
1.07
1.04
1.09
1.11
1.04
1.04
1.08
1.10
1.05
1.04
1.04
1.00
1.03
1.07
1.03
0.99
1.03
1.04
1.08
1.05
1.05
1.02
1.01
1.06
1.06
1.04
1.09
1.12
1.06
1.04
1.10
1.13
1.09
1.08
1.08
1.03
1.04
1.08
1.04
1.00
1.03
1.03
1.09
1.05
1.05
1.47
1.38
1.19
1.09
1.02
1.05
1.10
1.02
1.04
1.08
1.10
1.05
1.03
0.97
0.97
1.00
0.99
0.94
0.98
0.96
1.01
0.95
0.95
0.91
0.91
0.98
1.03
1.03
1.08
1.12
1.06
1.08
1.13
1.17
1.14
1.15
1.16
1.12
1.11
1.13
1.09
1.02
1.05
1.04
1.08
1.04
1.03
0.98
0.93
0.95
0.96
0.97
1.03
1.07
1.00
1.02
1.06
1.08
1.04
1.06
1.06
1.04
1.08
1.12
1.09
1.05
1.09
1.09
1.12
1.09
1.10
1.09
1.07
1.09
1.09
1.06
1.11
1.16
1.09
1.08
1.11
1.11
1.07
1.05
1.03
0.93
0.94
0.98
0.96
0.94
0.99
1.01
1.07
1.02
1.02
1.01
0.99
1.04
1.08
1.07
1.15
1.20
1.11
1.10
1.14
1.16
1.12
1.10
1.10
1.05
1.06
1.07
1.02
1.06
1.06
1.07
1.03
1.02
1.01
0.98
1.01
1.03
1.02
1.06
1.03
0.95
0.99
1.07
1.11
1.09
1.07
1.05
0.98
1.00
1.08
1.09
1.08
1.14
1.13
1.17
1.12
1.10
1.08
1.06
1.10
1.10
1.09
1.14
1.19
1.09
1.09
1.12
1.09
1.03
1.01
1.02
0.97
0.93
0.96
0.87
0.77
0.82
0.87
0.98
1.00
1.03
0.99
0.98
1.02
1.06
1.08
1.18
1.28
1.20
1.18
1.22
1.24
1.20
1.20
1.22
1.18
1.19
1.14
0.99
0.88
1.00
1.09
1.09
1.01
1.02
0.96
0.92
0.98
1.06
1.04
1.09
1.11
1.03
1.05
1.11
1.10
1.09
1.13
1.18
1.14
1.16
1.19
1.15
1.08
1.11
1.09
1.09
1.06
0.99
0.92
0.95
0.94
0.94
1.00
1.01
0.84
0.83
0.90
0.98
0.94
0.94
0.98
0.96
0.99
1.05
1.05
1.01
1.04
1.04
1.09
1.09
1.13
1.14
1.10
1.09
1.11
1.09
1.16
1.20
1.09
1.07
1.10
1.16
1.14
1.15
1.15
1.10
1.09
1.12
1.09
1.05
1.09
1.01
1.02
1.00
1.05
1.02
0.96
0.95
0.92
0.90
1.01
1.08
1.06
1.06
1.03
1.02
0.98
1.03
1.12
1.12
1.15
1.21
1.20
1.10
1.11
1.10
1.20
1.15
1.08
0.91
0.78
0.83
0.91
1.01
1.19
1.37
1.33
1.31
1.31
1.29
1.20
1.13
0.97
0.82
0.78
0.86
0.91
0.92
1.08
1.20
1.29
1.26
1.25
1.22
1.18
1.10
1.01
1.09
1.15
1.04
0.98
0.98
0.91
0.80
0.80
0.81
0.78
0.88
1.04
1.04
0.97
1.05
1.09
1.13
1.05
1.01
1.01
1.03
1.09
1.13
1.12
1.19
1.24
1.12
1.12
1.17
1.20
1.14
1.14
1.12
0.92
0.75
0.72
0.73
0.70
0.82
0.96
1.13
1.20
1.20
1.09
1.02
1.01
0.97
0.93
1.00
1.13
1.08
1.14
1.23
1.28
1.23
1.22
1.21
1.18
1.15
1.16
1.14
1.05
0.96
0.91
0.96
0.96
1.03
1.06
1.09
1.12
1.07
1.02
1.07
1.04
0.90
0.91
1.10
1.21
1.18
1.05
0.95
0.93
1.08
1.12
1.09
1.11
1.13
1.03
1.01
0.94
0.95
0.95
0.94
1.03
1.09
1.06
1.08
1.17
1.12
1.16
1.24
1.23
1.23
1.21
1.11
1.09
1.11
1.09
1.04
1.02
0.99
0.95
0.79
0.74
0.66
0.67
0.78
0.99
1.19
1.35
1.42
1.29
1.21
1.14
1.09
1.02
1.03
1.05
1.02
1.05
1.10
1.10
1.09
1.18
1.21
1.23
1.13
1.03
0.94
0.90
0.95
1.00
1.00
1.05
1.11
0.94
0.80
0.88
0.94
0.89
0.94
1.02
1.03
1.09
1.20
1.25
1.20
1.16
1.07
1.07
1.02
1.04
1.08
1.08
1.12
1.15
1.11
0.96
0.88
0.95
1.11
1.20
1.29
1.25
1.17
1.08
1.00
0.95
1.04
0.97
0.89
0.98
1.05
1.11
1.00
0.99
1.01
1.07
1.21
1.22
1.11
1.10
1.17
1.09
1.03
1.06
1.09
1.03
0.81
0.79
0.92
1.08
1.11
1.00
1.02
0.99
1.06
1.19
1.24
1.23
1.18
1.10
0.98
0.93
1.01
1.09
1.03
1.01
1.05
1.13
1.18
1.21
1.23
1.17
1.13
1.11
0.96
0.77
0.78
0.85
1.04
1.14
1.10
1.01
0.93
1.01
1.10
1.11
1.06
1.10
1.00
1.01
1.11
1.14
1.07
1.05
1.06
1.05
1.07
1.14
1.12
1.00
0.99
1.00
1.10
1.10
1.11
1.09
1.10
1.09
1.11
1.13
1.19
1.18
1.00
0.95
0.95
1.07
1.09
1.02
1.07
1.02
0.99
0.99
1.01
1.06
1.16
1.17
1.20
1.11
1.07
1.02
1.00
1.02
0.95
0.84
0.84
0.90
0.89
0.99
1.06
1.17
1.26
1.30
1.30
1.20
1.08
0.92
0.98
1.12
1.11
1.04
0.89
0.91
0.97
1.02
1.12
1.11
1.02
1.10
1.33
1.22
1.11
1.12
1.17
1.09
0.96
0.92
0.95
0.98
1.07
1.18
1.20
1.09
0.97
0.95
0.95
1.01
0.97
0.90
0.93
1.00
1.03
1.14
1.23
1.16
1.16
1.17
1.12
1.08
1.08
1.06
1.04
1.08
1.26
1.43
1.27
0.81
0.73
0.92
0.95
0.97
0.94
0.93
0.99
1.04
1.09
1.13
1.16
1.09
1.03
1.01
1.06
1.08
1.05
1.05
1.00
1.00
1.04
1.10
1.14
1.21
1.23
1.29
1.26
1.19
0.98
0.90
0.98
1.04
1.02
1.15
1.19
1.03
0.92
0.94
0.99
0.99
0.98
0.98
0.89
0.89
1.03
1.03
0.97
1.01
1.00
1.05
1.12
1.09
1.05
1.06
1.09
0.99
1.05
1.12
1.00
1.08
1.16
1.25
1.25
1.19
1.10
1.01
0.98
1.05
0.99
0.93
1.00
1.06
1.18
1.20
1.19
1.12
1.01
0.87
0.96
1.00
1.09
1.17
1.08
1.09
1.12
1.13
1.16
1.17
1.17
1.01
0.92
0.92
0.88
0.92
1.09
1.10
1.05
1.01
1.06
1.13
1.19
1.08
1.01
1.06
1.15
1.20
0.97
0.83
0.96
1.09
1.08
1.06
1.06
1.03
1.01
1.11
1.11
0.91
0.93
1.05
1.11
1.12
1.02
0.90
0.91
0.99
1.14
1.14
1.06
1.06
1.02
1.09
1.24
1.35
1.38
1.33
1.16
1.07
1.12
1.15
0.97
0.79
0.70
0.77
0.92
1.08
1.13
1.14
1.06
1.09
1.06
1.09
1.08
0.87
0.85
0.95
1.03
1.06
1.08
1.08
1.00
0.96
1.04
1.06
0.96
0.87
0.92
1.05
1.08
1.15
1.28
1.35
1.40
1.44
1.32
1.21
1.07
0.85
0.85
0.83
0.85
0.91
0.98
1.06
1.17
1.24
1.30
1.28
1.13
0.98
0.87
0.86
0.83
0.89
0.91
0.95
1.05
1.05
1.01
1.06
1.11
1.05
1.14
1.33
1.43
1.28
1.09
1.08
1.01
1.00
1.09
1.09
0.94
0.90
0.97
1.13
1.15
1.15
1.19
1.17
1.06
0.94
0.84
0.80
0.89
0.96
1.07
1.08
1.11
1.15
1.17
1.12
0.98
0.94
1.08
1.10
1.07
1.15
1.17
1.09
0.87
0.75
0.84
0.91
1.05
1.12
1.11
1.09
1.12
1.09
1.15
1.20
1.15
1.06
0.97
0.77
0.74
0.90
1.05
1.14
1.29
1.31
1.24
1.15
1.01
0.89
0.87
0.99
1.15
1.22
1.21
1.23
1.13
1.02
1.00
0.98
0.98
1.01
1.11
1.13
1.11
1.14
1.07
0.92
0.95
1.02
1.05
1.07
1.18
1.21
1.17
1.10
0.98
0.98
0.98
0.96
0.87
0.90
1.01
1.09
1.14
1.27
1.36
1.29
1.15
1.07
1.09
0.99
0.95
0.97
1.01
1.02
1.06
0.96
0.88
0.86
0.82
0.87
0.96
1.13
1.16
1.20
1.28
1.32
1.28
1.27
1.24
1.02
0.94
0.83
0.59
0.54
0.76
0.99
1.13
1.23
1.34
1.28
1.21
1.20
1.15
1.04
0.95
1.02
0.97
0.99
1.08
1.14
1.05
1.07
1.04
1.08
1.16
1.11
1.00
1.02
1.07
1.03
0.91
0.96
1.08
1.04
1.05
1.10
1.04
1.04
1.17
1.11
1.08
1.07
1.04
0.98
0.99
1.08
1.14
1.12
1.09
1.02
0.92
0.88
0.92
1.04
1.13
1.26
1.25
1.19
1.20
1.07
0.84
0.88
1.08
1.08
1.12
1.12
1.09
1.16
1.28
1.40
1.28
1.08
0.95
0.85
0.81
0.92
0.97
0.91
0.89
1.00
1.06
0.97
0.96
1.03
1.03
0.97
1.01
1.03
1.02
1.09
1.27
1.26
1.16
1.11
1.03
0.95
1.06
1.13
1.00
0.99
1.09
1.21
1.20
1.15
1.03
0.94
1.03
1.19
1.25
1.26
1.21
0.89
0.72
0.71
0.80
0.96
1.12
1.25
1.22
1.14
1.10
0.97
0.82
0.87
1.01
1.09
1.19
1.19
1.22
1.28
1.18
0.95
0.79
0.90
1.07
1.21
1.33
1.34
1.30
1.23
1.14
0.94
0.82
0.89
0.86
0.83
0.93
1.06
1.13
1.09
1.08
1.05
0.99
0.96
0.98
0.95
0.97
1.10
1.18
1.20
1.18
1.16
1.03
0.89
0.79
0.97
1.14
1.28
1.36
1.22
0.99
0.85
0.97
1.17
1.33
1.31
1.19
1.06
0.96
0.82
0.93
1.05
1.00
0.93
0.97
1.15
1.22
1.16
1.09
1.02
1.00
1.01
0.96
0.89
0.88
0.95
1.02
1.01
1.08
1.00
0.99
1.03
1.08
0.97
0.99
1.12
1.01
0.98
1.17
1.26
1.23
1.30
1.33
1.28
1.21
1.15
1.16
1.00
0.94
0.87
0.94
1.00
1.05
1.12
1.09
1.01
0.95
0.95
1.08
1.07
1.06
1.12
1.12
0.96
0.84
0.91
0.95
0.88
0.91
0.98
1.03
1.10
1.12
1.15
1.14
1.14
1.17
1.09
1.06
1.10
1.05
1.02
1.06
1.03
1.05
1.17
1.22
1.13
1.12
1.22
1.25
1.22
1.22
1.20
1.14
0.95
0.74
0.63
0.68
0.84
0.96
1.10
1.14
1.22
1.25
1.25
1.21
1.08
0.94
0.94
1.03
1.14
1.18
1.09
0.87
0.80
0.89
0.95
0.93
0.97
1.11
1.19
1.13
1.10
1.14
1.21
1.29
1.29
1.17
1.05
1.02
0.89
0.85
0.95
1.01
0.98
1.09
1.17
1.13
1.13
1.11
0.88
0.69
0.77
0.95
1.12
1.21
1.19
1.14
1.03
1.04
1.07
1.08
1.11
1.04
0.99
0.99
1.08
1.15
1.21
1.16
1.07
1.06
1.11
1.14
1.11
1.09
1.06
1.06
1.00
1.03
1.05
1.05
1.16
1.33
1.21
0.93
0.83
0.80
0.80
0.87
0.97
1.09
1.28
1.35
1.25
1.12
1.09
1.09
1.03
1.09
1.15
1.20
1.15
1.07
0.91
0.76
0.78
0.94
1.00
0.92
1.01
1.09
1.18
1.31
1.31
1.16
0.98
0.85
0.81
0.88
0.99
1.12
1.11
1.21
1.24
1.11
0.95
0.97
1.02
1.01
1.06
0.89
0.90
1.12
1.30
1.26
1.18
1.19
1.20
1.09
0.98
0.95
0.90
0.88
0.95
1.00
1.07
1.21
1.21
1.10
0.93
0.76
0.73
0.76
0.87
1.11
1.19
1.20
1.30
1.20
1.14
1.18
1.12
1.06
1.01
0.92
0.86
0.88
0.99
1.11
1.30
1.34
1.31
1.24
1.07
0.92
0.76
0.79
0.88
0.98
1.09
1.26
1.30
1.23
1.19
1.11
1.09
1.16
1.14
0.92
0.79
0.89
1.04
1.12
1.21
1.19
1.15
1.02
0.95
1.02
1.06
1.14
1.23
1.17
1.02
1.00
0.90
0.86
0.93
0.98
0.98
1.09
1.10
1.00
0.99
1.11
1.14
1.01
0.96
1.00
0.99
1.07
1.09
0.99
0.97
1.02
1.00
0.96
1.05
1.31
1.40
1.43
1.40
1.28
1.09
0.88
0.77
0.76
0.88
1.09
1.28
1.29
1.32
1.28
1.05
0.84
0.76
0.80
0.82
0.93
1.08
1.06
0.98
1.07
1.05
1.06
1.11
1.09
1.03
0.99
1.04
1.11
1.10
1.04
1.01
1.07
1.16
1.19
1.16
1.08
0.94
0.86
1.04
1.22
1.30
1.34
1.31
1.06
0.91
0.93
0.99
1.07
1.08
1.06
0.96
0.88
0.92
0.98
0.99
1.03
1.11
1.10
1.09
1.16
1.12
1.07
1.02
1.09
1.10
1.00
1.03
1.06
1.09
1.16
1.04
0.94
0.93
0.95
1.03
1.13
1.22
1.22
1.17
1.21
1.17
0.92
0.78
0.68
0.68
0.77
0.97
1.18
1.25
1.22
1.27
1.18
1.09
1.07
1.10
1.09
1.16
1.15
1.03
0.96
0.99
1.01
1.01
1.09
1.16
1.13
1.03
0.99
1.02
1.09
1.24
1.35
1.24
1.09
0.97
0.75
0.66
0.86
1.10
1.16
1.15
1.17
1.16
1.18
1.16
1.14
1.13
1.10
1.11
1.09
0.99
0.84
0.63
0.60
0.78
0.95
1.07
1.21
1.23
1.23
1.24
1.21
1.09
0.98
0.95
0.92
0.97
1.02
1.00
0.95
0.95
1.00
1.02
1.05
1.15
1.22
1.20
1.16
1.20
1.12
1.17
1.32
1.30
1.21
1.14
1.20
1.13
0.99
0.90
0.81
0.82
0.87
1.00
1.02
1.08
1.18
1.22
1.20
1.11
0.95
0.83
0.83
0.89
0.95
1.04
1.22
1.18
1.00
1.05
1.14
1.24
1.26
1.21
1.11
0.91
0.90
0.95
0.89
0.94
1.04
1.06
1.09
1.08
1.06
1.03
1.02
1.00
1.02
1.03
1.08
1.08
1.09
1.20
1.19
1.09
1.00
1.03
1.07
1.10
1.22
1.21
1.13
1.06
1.09
1.12
1.14
1.10
0.94
0.96
0.99
1.04
1.03
1.06
0.93
0.87
0.85
0.88
1.01
1.03
1.09
1.13
1.15
1.15
1.11
1.03
1.02
1.09
1.06
1.04
1.08
1.01
0.90
0.87
1.00
1.09
1.17
1.27
1.27
1.24
1.29
1.26
1.13
0.99
0.92
0.96
1.06
1.08
1.06
0.98
0.95
0.94
0.94
0.98
1.03
1.09
1.17
1.18
1.24
1.26
1.25
1.22
1.04
0.90
0.86
0.94
0.91
0.87
0.93
1.04
1.09
1.15
1.14
1.04
1.02
1.03
0.99
0.96
0.93
0.97
1.02
1.01
1.03
1.02
1.05
1.10
1.07
1.09
1.16
1.22
1.23
1.19
1.13
1.04
1.04
1.13
1.20
1.13
1.11
1.11
1.02
0.92
0.87
0.87
0.91
0.96
1.06
1.08
1.24
1.22
1.17
1.18
1.15
1.13
1.06
0.98
0.79
0.77
1.08
1.28
1.35
1.34
1.33
1.29
1.24
1.00
0.76
0.64
0.67
0.74
0.74
0.87
1.13
1.18
1.17
1.15
1.16
1.11
1.06
1.03
0.98
0.93
0.96
0.99
1.02
1.06
1.16
1.16
1.18
1.25
1.19
1.00
0.91
0.91
0.97
1.02
1.17
1.23
1.16
1.14
1.12
1.07
1.11
1.09
1.01
0.89
0.77
0.75
0.75
0.87
1.04
1.12
1.11
1.11
1.14
1.14
1.13
1.16
1.18
1.16
1.21
1.23
1.20
1.17
1.20
1.12
1.07
1.02
0.94
0.90
0.96
1.04
1.04
1.09
1.19
1.18
1.15
1.12
1.00
0.91
0.90
0.94
0.97
0.97
1.07
1.09
1.09
1.11
1.15
1.15
1.07
0.92
0.87
0.95
0.99
0.98
1.05
1.20
1.21
1.14
1.09
1.04
0.97
0.91
0.91
0.93
0.99
1.11
1.21
1.21
1.23
1.22
1.06
0.97
0.90
0.78
0.73
0.93
1.30
1.49
1.55
1.45
1.20
0.98
0.75
0.62
0.76
1.01
1.18
1.28
1.24
1.09
0.93
0.80
0.86
1.06
1.13
1.16
1.14
1.05
0.95
0.93
0.93
0.88
0.92
1.03
1.04
1.09
1.15
1.18
1.07
0.95
1.04
1.06
1.01
1.04
1.08
1.11
1.14
1.09
1.06
1.09
1.20
1.28
1.30
1.26
1.18
1.04
0.86
0.77
0.83
0.93
1.02
1.12
1.17
1.19
1.17
1.10
1.07
1.17
1.15
1.09
1.10
1.17
1.10
0.97
0.98
0.91
0.96
1.09
1.07
1.03
1.06
1.02
0.92
0.89
1.02
1.08
1.12
1.15
1.13
1.17
1.27
1.24
1.09
0.98
1.07
1.06
1.05
1.07
0.95
0.84
0.96
1.07
1.11
1.17
1.16
1.13
1.11
0.96
0.85
0.76
0.76
0.86
0.99
1.12
1.28
1.26
1.11
0.99
0.96
0.99
1.04
1.17
1.16
1.20
1.23
1.25
1.21
1.26
1.25
1.18
1.06
0.89
0.87
0.84
0.87
0.98
1.05
1.05
1.12
1.08
0.98
0.98
1.06
1.08
1.13
1.22
1.21
1.09
0.95
0.81
0.68
0.70
0.89
1.12
1.31
1.46
1.55
1.39
1.15
0.99
0.86
0.69
0.68
0.79
0.95
1.11
1.25
1.28
1.14
1.09
1.09
1.06
1.16
1.12
0.98
0.82
0.70
0.75
1.00
1.18
1.29
1.33
1.26
1.15
1.14
1.25
1.27
1.20
1.20
1.21
1.18
1.13
1.05
0.90
0.82
0.81
0.88
0.99
1.12
1.29
1.31
1.17
0.96
0.79
0.72
0.82
0.91
0.95
0.93
0.93
0.97
1.05
1.23
1.45
1.51
1.41
1.28
0.99
0.63
0.58
0.75
1.06
1.26
1.26
1.17
1.13
1.09
1.10
1.11
1.13
1.21
1.03
0.84
0.79
0.78
0.77
0.92
1.13
1.26
1.27
1.20
1.06
0.94
0.96
0.97
0.94
0.95
1.12
1.21
1.25
1.19
1.10
1.00
0.87
0.91
1.04
1.11
1.23
1.24
1.17
1.11
1.16
1.20
1.22
1.12
0.94
0.79
0.86
0.95
1.01
1.04
1.09
1.09
1.13
1.14
1.18
1.28
1.19
1.04
0.99
0.97
0.91
0.87
1.02
1.14
1.18
1.04
0.98
1.01
1.03
1.09
1.09
0.99
0.95
0.95
0.86
0.92
1.10
1.25
1.29
1.27
1.09
0.79
0.62
0.79
0.97
1.12
1.30
1.30
1.25
1.16
1.08
0.92
0.88
1.01
1.20
1.23
1.14
1.08
0.98
0.92
0.88
0.78
0.76
0.84
1.00
1.09
1.17
1.32
1.34
1.28
1.20
1.09
0.96
0.89
1.02
1.06
1.04
1.07
1.09
1.03
1.03
1.10
1.09
1.08
1.02
1.02
1.02
1.03
1.11
1.13
1.12
1.20
1.13
1.01
1.08
1.20
1.24
1.22
1.19
1.00
0.78
0.74
0.78
0.85
1.02
1.24
1.22
1.20
1.26
1.23
1.13
1.02
0.97
0.93
0.90
0.98
0.90
0.88
0.89
0.96
1.08
1.26
1.32
1.33
1.38
1.33
1.17
1.02
0.96
0.88
0.82
0.90
1.02
1.09
1.07
1.11
1.01
0.87
0.95
1.04
1.04
1.20
1.29
1.32
1.24
1.16
1.11
1.07
0.99
0.84
0.65
0.57
0.70
0.88
1.03
1.12
1.14
1.14
1.16
1.17
1.11
1.11
1.19
1.17
1.07
1.07
1.12
1.09
1.02
1.05
1.09
1.11
1.12
1.15
1.08
0.99
0.96
0.87
0.87
0.90
1.07
1.11
1.09
1.12
1.10
1.03
1.08
1.10
1.05
1.09
1.16
1.11
1.04
1.05
1.08
1.03
1.08
1.11
1.11
1.19
1.38
1.41
1.43
1.38
1.17
0.94
0.83
0.85
0.90
0.87
0.92
0.90
0.89
0.94
1.01
1.19
1.25
1.21
1.03
0.90
0.87
0.83
0.85
1.01
1.13
1.08
0.98
0.96
1.00
1.12
1.25
1.33
1.41
1.33
1.00
0.53
0.53
0.76
0.95
1.18
1.29
1.23
1.12
1.09
1.06
0.98
0.94
0.99
1.02
1.08
1.11
1.17
1.14
1.11
1.10
1.02
1.01
1.16
1.28
1.23
1.24
1.31
1.38
1.23
1.05
0.95
0.87
0.75
0.73
0.76
0.81
1.03
1.26
1.37
1.22
1.08
0.87
0.72
0.77
0.85
0.95
1.13
1.24
1.17
1.12
1.07
1.10
1.09
1.21
1.32
1.32
1.28
1.16
0.94
0.88
0.96
1.00
1.01
0.93
0.90
0.79
0.89
1.10
1.21
1.19
1.17
1.17
0.94
0.86
0.94
1.06
1.10
1.04
1.15
1.16
1.18
1.04
0.96
1.01
1.06
1.12
1.13
1.12
1.03
1.05
1.03
1.02
1.01
1.10
1.27
1.36
1.44
1.34
1.19
0.96
0.83
0.72
0.65
0.60
0.79
1.03
1.11
1.26
1.23
1.15
1.12
1.19
1.16
1.07
0.99
0.91
0.85
0.94
0.92
0.89
1.04
1.12
1.20
1.30
1.37
1.41
1.37
1.21
1.08
0.92
0.87
0.94
0.93
0.97
0.88
0.93
1.01
1.00
1.08
1.09
0.93
0.96
0.96
0.89
1.00
1.08
1.10
1.15
1.17
1.14
1.00
0.95
0.99
1.01
1.01
1.16
1.25
1.32
1.20
1.11
0.99
0.94
1.00
1.07
1.03
1.08
1.15
1.11
1.08
1.04
1.05
1.04
1.06
1.03
0.95
0.94
0.96
0.95
0.93
1.06
1.27
1.33
1.39
1.36
1.21
1.04
0.89
0.80
0.92
1.11
1.13
1.16
1.13
1.10
1.05
0.95
0.90
0.87
0.93
1.05
1.04
0.97
0.97
0.87
0.88
0.89
1.01
1.04
1.03
1.15
1.22
1.21
1.26
1.14
0.92
0.87
0.90
1.03
1.12
1.21
1.30
1.43
1.48
1.47
1.25
0.97
0.85
0.79
0.94
0.93
0.99
1.04
0.99
0.90
0.87
0.92
1.02
1.06
1.04
1.08
1.00
0.89
0.84
0.99
1.11
1.13
1.18
1.13
1.04
1.03
1.06
1.01
0.98
0.97
1.09
1.17
1.15
1.21
1.22
1.30
1.38
1.35
1.23
1.20
1.10
0.96
0.85
0.94
1.09
1.15
1.15
1.12
0.99
0.88
0.93
0.95
0.97
0.87
0.89
1.09
1.11
1.02
0.97
0.90
0.78
0.82
0.93
1.02
1.08
1.21
1.32
1.43
1.42
1.40
1.24
0.89
0.60
0.45
0.46
0.72
1.02
1.25
1.31
1.27
1.24
1.25
1.24
1.22
1.15
1.01
1.00
0.96
0.88
0.87
0.99
1.09
1.11
1.10
1.16
1.18
1.16
1.24
1.18
1.15
1.03
0.98
0.89
0.91
1.03
0.98
0.91
1.02
1.10
1.11
1.18
1.25
1.31
1.23
1.12
1.14
1.02
0.96
0.97
0.91
0.87
0.96
0.96
0.97
0.96
1.04
1.13
1.25
1.25
1.17
1.10
1.02
0.88
0.80
0.92
1.06
1.20
1.19
1.16
1.02
0.87
0.81
0.90
1.05
1.11
1.21
1.23
1.14
1.03
1.10
1.19
1.19
1.25
1.30
1.28
1.24
0.82
0.55
0.57
0.86
1.16
1.39
1.41
1.27
1.10
0.98
0.91
0.81
0.86
0.90
1.02
1.05
1.01
0.89
0.80
0.87
0.97
0.93
0.96
1.07
1.10
1.17
1.22
1.28
1.22
1.09
1.09
1.07
1.09
1.16
1.16
1.09
1.08
1.09
1.16
1.16
1.09
1.01
0.98
1.05
1.08
1.00
1.05
1.09
0.97
0.98
1.08
1.14
1.07
1.03
1.01
0.99
1.04
1.09
1.08
1.07
1.13
1.19
1.28
1.21
1.11
1.02
0.95
0.89
0.84
0.92
1.14
1.23
1.17
1.17
1.10
1.04
0.96
0.95
0.99
0.95
0.99
1.04
1.01
0.94
0.96
0.92
0.95
1.02
1.10
1.14
1.18
1.28
1.29
1.23
1.25
1.30
1.15
1.17
1.22
1.12
1.00
0.92
0.75
0.74
0.88
0.96
1.02
1.11
1.05
1.16
1.15
1.04
0.91
0.82
0.81
0.84
0.90
1.06
1.18
1.11
1.08
1.14
1.17
1.13
1.21
1.27
1.24
1.12
0.97
0.85
0.80
0.96
1.12
1.09
0.94
0.93
0.98
1.04
1.09
1.14
1.11
1.11
1.14
1.07
1.09
1.11
1.10
1.09
1.09
1.18
1.33
1.41
1.43
1.34
1.11
0.89
0.73
0.78
0.86
0.94
1.03
0.98
0.98
0.97
0.93
0.95
1.03
1.03
1.06
1.11
1.13
1.05
1.02
1.00
0.96
0.98
1.04
1.07
1.03
1.08
1.01
1.10
1.19
1.23
1.21
1.14
1.15
1.12
1.08
1.22
1.33
1.23
1.20
1.15
1.02
0.97
0.94
0.89
0.77
0.85
1.06
1.14
1.23
1.22
1.21
1.09
1.03
0.92
0.80
0.88
1.00
1.02
1.09
1.18
1.05
0.89
0.86
1.00
1.14
1.27
1.25
1.04
0.93
0.90
0.83
0.85
0.98
1.02
1.10
1.05
1.03
1.05
1.08
1.14
1.17
1.09
1.06
1.10
1.08
1.21
1.29
1.32
1.20
1.05
0.91
0.87
0.96
1.05
0.99
0.97
1.05
1.07
1.12
1.10
1.09
1.03
0.95
0.93
0.94
0.91
0.97
1.06
1.03
1.06
1.12
1.15
1.13
1.13
1.13
1.08
1.09
1.12
1.10
1.06
1.07
1.07
1.11
1.09
1.12
1.10
1.07
1.06
1.04
0.99
1.02
1.05
1.02
1.02
1.08
1.13
1.09
1.10
1.09
1.04
1.03
1.05
1.03
1.01
1.07
1.08
1.07
1.04
1.02
0.99
1.02
1.06
1.07
1.14
1.16
1.06
1.06
1.13
1.14
1.05
1.00
1.02
0.94
0.94
0.99
1.02
1.04
1.09
1.07
1.09
1.02
1.02
1.01
0.99
1.04
1.05
1.03
1.09
1.16
1.14
1.13
1.15
1.16
1.12
1.10
1.09
1.01
1.02
1.08
1.06
1.05
1.07
1.03
1.04
0.99
0.98
1.00
0.99
1.01
1.02
1.02
1.06
1.10
1.05
1.06
1.10
1.12
1.08
1.07
1.07
1.03
1.03
1.06
1.06
1.01
1.06
1.06
1.10
1.08
1.09
1.07
1.03
1.04
1.05
1.03
1.08
1.13
1.07
1.06
1.09
1.12
1.09
1.07
1.06
1.00
1.02
1.07
1.06
1.01
1.04
1.04
1.07
1.04
1.05
1.02
1.01
1.07
1.05
1.08
1.12
1.06
1.05
1.09
1.13
1.09
1.09
1.08
1.04
1.03
1.07
1.05
1.01
1.04
1.05
1.09
1.05
1.05
1.02
1.01
1.04
1.06
1.04
1.08
1.14
1.06
1.05
1.10
1.13
1.09
1.08
1.08
1.02
1.02
1.06
1.05
1.01
1.04
1.05
1.09
1.04
1.03
1.02
1.01
1.03
1.05
1.05
1.09
1.14
1.08
1.07
1.10
1.12
1.09
1.08
1.08
1.03
1.03
1.05
1.04
1.00
1.03
1.05
1.10
1.06
1.06
1.04
1.01
1.04
1.06
1.04
1.08
1.13
1.07
1.06
1.09
1.12
1.08
1.07
1.08
1.04
1.04
1.08
1.05
1.00
1.04
1.05
1.09
1.05
1.05
1.03
1.02
1.04
1.05
1.03
1.06
1.13
1.07
1.10
1.13
1.09
1.07
1.08
1.02
1.02
1.06
1.04
1.00
1.04
1.05
1.09
1.05
1.05
1.03
1.02
1.03
1.05
1.05
1.09
1.15
1.07
1.06
1.09
1.13
1.08
1.07
1.08
1.04
1.04
1.07
1.05
1.01
1.02
1.05
1.08
1.05
1.06
1.04
1.02
1.05
1.06
1.04
1.07
1.13
1.06
1.05
1.09
1.11
1.08
1.06
1.07
1.04
1.03
1.07
1.05
1.00
1.04
1.05
1.09
1.05
1.05
1.03
1.00
1.02
1.04
1.03
1.06
1.12
1.07
1.07
1.09
1.12
1.09
1.09
1.09
1.03
1.03
1.05
1.04
1.00
1.03
1.05
1.08
1.05
1.06
1.04
1.00
1.02
1.06
1.05
1.09
1.14
1.08
1.06
1.09
1.12
1.08
1.07
1.02
1.02
1.06
1.06
1.00
1.03
1.05
1.08
1.05
1.07
1.03
1.01
1.04
1.05
1.05
1.08
1.13
1.06
1.05
1.10
1.12
1.08
1.06
1.06
1.02
1.01
1.05
1.05
1.02
1.05
1.05
1.09
1.06
1.06
1.04
1.01
1.04
1.07
1.05
1.08
1.14
1.09
1.08
1.11
1.13
1.08
1.08
1.08
1.02
1.01
1.05
1.05
1.01
1.03
1.05
1.09
1.05
1.05
1.03
1.02
1.04
1.06
1.04
1.06
1.12
1.06
1.03
1.07
1.12
1.09
1.08
1.08
1.03
1.03
1.06
1.06
1.01
1.04
1.05
1.08
1.04
1.04
1.02
1.00
1.03
1.07
1.05
1.08
1.14
1.08
1.06
1.09
1.12
1.09
1.07
1.06
1.02
1.02
1.05
1.00
1.02
1.05
1.07
1.04
1.04
1.03
1.03
1.03
1.07
1.04
1.07
1.13
1.07
1.06
1.10
1.14
1.10
1.09
1.09
1.04
1.02
1.05
1.05
1.03
1.05
1.07
1.09
1.06
1.04
1.02
1.00
1.02
1.05
1.02
1.04
1.12
1.07
1.05
1.09
1.12
1.09
1.09
1.10
1.05
1.04
1.07
1.06
0.99
1.01
1.03
1.07
1.03
1.04
1.03
1.02
1.04
1.07
1.05
1.08
1.16
1.09
1.07
1.10
1.16
1.12
1.09
1.08
1.03
1.02
1.05
1.05
0.99
1.02
1.04
1.07
1.04
1.03
1.03
0.99
1.02
1.07
1.05
1.07
1.13
1.07
1.04
1.08
1.11
1.08
1.07
1.07
1.03
1.02
1.04
1.04
1.00
1.04
1.07
1.09
1.07
1.04
1.02
1.04
1.06
1.04
1.06
1.14
1.07
1.05
1.09
1.12
1.08
1.07
1.07
1.02
0.99
1.05
1.07
1.00
1.03
1.06
1.09
1.04
1.05
1.03
1.02
1.03
1.05
1.02
1.05
1.12
1.06
1.05
1.10
1.14
1.10
1.09
1.09
1.04
1.02
1.06
1.06
1.01
1.03
1.06
1.09
1.05
1.05
1.04
1.02
1.03
1.05
1.03
1.06
1.13
1.08
1.07
1.09
1.13
1.10
1.08
1.08
1.03
1.02
1.05
1.05
1.00
1.02
1.03
1.07
1.03
1.06
1.04
1.02
1.04
1.06
1.04
1.06
1.13
1.08
1.05
1.09
1.13
1.09
1.08
1.08
1.04
1.03
1.07
1.04
0.99
1.02
1.05
1.09
1.06
1.06
1.04
1.02
1.03
1.03
1.05
1.12
1.07
1.05
1.09
1.13
1.08
1.07
1.08
1.05
1.03
1.06
1.06
1.01
1.03
1.06
1.09
1.06
1.06
1.04
1.01
1.03
1.06
1.04
1.05
1.12
1.07
1.05
1.10
1.14
1.09
1.08
1.09
1.04
1.03
1.05
1.05
1.00
1.02
1.05
1.08
1.05
1.03
1.04
1.01
1.03
1.07
1.05
1.07
1.14
1.09
1.06
1.10
1.13
1.09
1.07
1.08
1.02
1.00
1.05
1.06
1.00
1.02
1.04
1.07
1.06
1.05
1.03
1.00
1.02
1.05
1.04
1.05
1.13
1.08
1.06
1.09
1.14
1.10
1.08
1.07
1.02
1.01
1.07
1.08
1.02
1.04
1.06
1.08
1.05
1.05
1.03
1.01
1.03
1.06
1.04
1.05
1.13
1.07
1.08
1.13
1.11
1.09
1.08
1.04
1.02
1.05
1.06
1.00
1.01
1.04
1.08
1.05
1.05
1.04
1.01
1.03
1.07
1.04
1.05
1.13
1.10
1.06
1.10
1.14
1.10
1.07
1.08
1.04
1.02
1.05
1.06
0.99
1.02
1.04
1.06
1.05
1.05
1.04
1.01
1.03
1.07
1.04
1.05
1.13
1.08
1.06
1.09
1.13
1.10
1.08
1.08
1.03
1.01
1.05
1.05
0.99
1.02
1.06
1.09
1.06
1.05
1.04
1.01
1.03
1.06
1.04
1.05
1.13
1.08
1.04
1.09
1.12
1.08
1.08
1.08
1.04
1.02
1.05
1.06
1.01
1.03
1.06
1.09
1.05
1.05
1.02
1.00
1.02
1.05
1.03
1.05
1.14
1.08
1.05
1.08
1.12
1.09
1.08
1.04
1.01
1.07
1.07
1.01
1.02
1.06
1.08
1.06
1.05
1.04
1.01
1.02
1.06
1.04
1.08
1.15
1.09
1.07
1.09
1.13
1.10
1.08
1.07
1.04
1.02
1.05
1.06
0.99
1.01
1.06
1.08
1.06
1.05
1.05
1.02
1.02
1.06
1.04
1.04
1.13
1.08
1.05
1.09
1.13
1.09
1.07
1.08
1.04
1.01
1.04
1.06
1.01
1.03
1.07
1.08
1.06
1.05
1.04
1.01
1.02
1.06
1.03
1.03
1.11
1.06
1.03
1.08
1.15
1.13
1.10
1.10
1.06
1.04
1.08
1.09
1.02
1.02
1.04
1.06
1.04
1.04
1.04
1.01
1.03
1.07
1.04
1.05
1.13
1.10
1.07
1.09
1.13
1.09
1.06
1.06
1.02
0.99
1.02
1.04
0.99
1.03
1.06
1.05
1.05
1.06
1.04
1.05
1.08
1.07
1.07
1.17
1.10
1.06
1.10
1.13
1.10
1.07
1.06
1.03
1.02
1.05
1.07
1.01
1.03
1.06
1.09
1.08
1.05
1.03
1.00
1.01
1.04
1.03
1.04
1.12
1.08
1.04
1.09
1.12
1.09
1.05
1.06
1.03
1.03
1.07
1.08
1.02
1.03
1.05
1.07
1.06
1.05
1.04
1.02
1.03
1.07
1.06
1.06
1.13
1.07
1.02
1.07
1.12
1.11
1.09
1.09
1.05
1.02
1.05
1.06
1.01
1.01
1.05
1.07
1.05
1.05
1.03
1.01
1.00
1.05
1.05
1.06
1.14
1.09
1.05
1.09
1.12
1.10
1.07
1.08
1.04
1.02
1.05
1.07
1.01
1.01
1.04
1.05
1.05
1.05
1.02
1.02
1.07
1.05
1.05
1.12
1.09
1.05
1.09
1.12
1.10
1.07
1.08
1.04
1.01
1.05
1.08
1.03
1.02
1.06
1.07
1.06
1.04
1.04
1.01
1.02
1.06
1.04
1.04
1.13
1.09
1.04
1.09
1.13
1.11
1.09
1.09
1.05
1.02
1.06
1.07
1.00
1.01
1.05
1.07
1.04
1.03
1.02
1.00
1.01
1.06
1.04
1.04
1.12
1.09
1.06
1.10
1.13
1.10
1.07
1.07
1.04
1.02
1.06
1.08
1.02
1.02
1.07
1.09
1.07
1.05
1.02
1.01
1.01
1.07
1.06
1.05
1.13
1.10
1.05
1.09
1.12
1.10
1.08
1.08
1.05
1.02
1.04
1.06
1.00
1.01
1.05
1.07
1.07
1.05
1.04
1.02
1.02
1.06
1.04
1.13
1.09
1.05
1.08
1.13
1.09
1.07
1.07
1.05
1.02
1.07
1.08
1.02
1.01
1.05
1.07
1.07
1.05
1.04
1.02
1.02
1.07
1.05
1.05
1.13
1.09
1.04
1.07
1.12
1.10
1.09
1.09
1.05
1.02
1.05
1.06
1.00
1.01
1.05
1.07
1.05
1.04
1.03
1.01
1.01
1.05
1.06
1.06
1.13
1.10
1.06
1.09
1.13
1.10
1.08
1.08
1.05
1.02
1.05
1.07
1.01
1.02
1.06
1.07
1.06
1.05
1.03
1.02
1.03
1.06
1.05
1.04
1.13
1.09
1.04
1.08
1.12
1.09
1.07
1.07
1.03
1.00
1.04
1.07
1.00
1.01
1.05
1.08
1.07
1.05
1.04
1.02
1.01
1.06
1.04
1.04
1.12
1.10
1.05
1.12
1.09
1.07
1.10
1.07
1.03
1.06
1.08
1.03
1.02
1.06
1.07
1.06
1.05
1.04
1.02
1.01
1.06
1.05
1.02
1.10
1.09
1.05
1.09
1.13
1.10
1.08
1.08
1.06
1.02
1.04
1.07
1.01
1.01
1.05
1.06
1.07
1.05
1.04
1.02
1.00
1.05
1.05
1.06
1.13
1.10
1.05
1.09
1.12
1.10
1.08
1.08
1.05
1.02
1.05
1.07
1.02
1.01
1.06
1.07
1.05
1.02
1.02
1.02
1.02
1.06
1.04
1.03
1.11
1.09
1.04
1.08
1.11
1.10
1.07
1.07
1.05
1.00
1.03
1.06
1.03
1.02
1.06
1.07
1.07
1.04
1.04
1.01
1.01
1.06
1.05
1.04
1.12
1.10
1.03
1.09
1.12
1.11
1.08
1.08
1.02
1.05
1.07
1.02
1.00
1.04
1.05
1.06
1.03
1.04
1.01
1.01
1.05
1.06
1.03
1.11
1.09
1.06
1.08
1.12
1.10
1.08
1.09
1.06
1.03
1.05
1.08
1.02
1.02
1.06
1.06
1.06
1.04
1.05
1.02
1.00
1.03
1.04
1.03
1.12
1.11
1.06
1.09
1.13
1.12
1.09
1.09
1.08
1.04
1.06
1.07
1.01
1.00
1.04
1.05
1.06
1.05
1.07
1.04
1.03
1.08
1.06
1.04
1.12
1.10
1.05
1.07
1.10
1.09
1.06
1.05
1.03
1.00
1.05
1.08
1.02
1.01
1.05
1.07
1.07
1.05
1.04
1.01
1.01
1.06
1.03
1.02
1.11
1.10
1.06
1.09
1.13
1.12
1.08
1.08
1.06
1.01
1.04
1.07
1.02
1.06
1.06
1.07
1.05
1.05
1.02
1.02
1.06
1.04
1.02
1.11
1.11
1.06
1.08
1.12
1.11
1.08
1.07
1.05
1.01
1.05
1.06
1.02
1.01
1.05
1.05
1.08
1.05
1.05
1.03
1.03
1.07
1.06
1.05
1.12
1.10
1.05
1.08
1.10
1.09
1.08
1.06
1.05
1.01
1.04
1.07
1.04
1.02
1.06
1.07
1.07
1.04
1.03
1.02
1.01
1.06
1.06
1.04
1.11
1.11
1.05
1.08
1.10
1.09
1.06
1.08
1.06
1.02
1.05
1.08
1.02
1.01
1.06
1.06
1.07
1.05
1.05
1.02
1.01
1.04
1.04
1.02
1.11
1.11
1.06
1.08
1.12
1.11
1.08
1.08
1.06
1.02
1.05
1.07
1.03
1.01
1.05
1.06
1.06
1.03
1.03
1.03
1.07
1.06
1.04
1.11
1.10
1.05
1.08
1.11
1.09
1.07
1.08
1.06
1.01
1.03
1.05
1.01
0.99
1.04
1.05
1.06
1.05
1.06
1.05
1.04
1.09
1.09
1.07
1.12
1.12
1.06
1.08
1.12
1.12
1.09
1.09
1.05
1.01
1.04
1.09
1.04
1.02
1.06
1.06
1.06
1.03
1.03
0.99
0.98
1.04
1.03
1.01
1.09
1.07
1.03
1.08
1.11
1.11
1.09
1.09
1.06
1.03
1.05
1.09
1.04
1.02
1.06
1.06
1.08
1.03
1.03
1.01
1.01
1.05
1.05
1.03
1.11
1.10
1.06
1.09
1.13
1.11
1.08
1.08
1.05
1.00
1.02
1.05
1.01
0.98
1.04
1.05
1.07
1.04
1.04
1.04
1.04
1.09
1.08
1.13
1.13
1.07
1.09
1.12
1.12
1.08
1.08
1.06
1.03
1.04
1.07
1.03
1.01
1.08
1.09
1.09
1.04
1.04
1.01
1.00
1.04
1.04
1.02
1.09
1.09
1.04
1.05
1.10
1.09
1.08
1.08
1.06
1.00
1.02
1.06
1.02
1.00
1.05
1.06
1.08
1.05
1.04
1.04
1.03
1.08
1.08
1.05
1.11
1.11
1.04
1.08
1.13
1.14
1.11
1.10
1.09
1.03
1.05
1.08
1.03
1.00
1.05
1.05
1.06
1.03
1.03
0.99
1.01
1.05
1.03
1.02
1.09
1.09
1.03
1.05
1.10
1.11
1.07
1.07
1.06
1.01
1.04
1.08
1.03
1.01
1.06
1.07
1.08
1.05
1.04
1.03
1.02
1.07
1.06
1.04
1.10
1.10
1.03
1.06
1.09
1.06
1.06
1.06
1.03
1.03
1.06
1.02
1.01
1.05
1.06
1.08
1.04
1.03
1.02
1.01
1.07
1.06
1.04
1.11
1.13
1.07
1.06
1.10
1.12
1.09
1.09
1.08
1.03
1.05
1.08
1.04
1.01
1.06
1.06
1.08
1.05
1.05
1.02
1.00
1.04
1.04
1.05
1.12
1.13
1.07
1.07
1.11
1.12
1.08
1.07
1.06
1.02
1.04
1.07
1.02
0.99
1.04
1.04
1.07
1.03
1.03
1.00
0.99
1.05
1.07
1.05
1.11
1.13
1.06
1.08
1.12
1.12
1.08
1.07
1.06
1.02
1.04
1.08
1.01
0.98
1.04
1.07
1.09
1.05
1.04
1.03
1.01
1.05
1.06
1.03
1.09
1.10
1.04
1.06
1.09
1.08
1.04
1.06
1.07
1.05
1.08
1.04
1.02
1.07
1.07
1.10
1.07
1.06
1.03
1.01
1.06
1.06
1.05
1.10
1.13
1.04
1.09
1.13
1.13
1.09
1.08
1.07
1.02
1.03
1.05
1.00
0.96
1.03
1.04
1.05
1.01
1.02
1.00
1.00
1.05
1.06
1.05
1.12
1.14
1.06
1.07
1.11
1.13
1.10
1.09
1.09
1.03
1.06
1.08
1.02
1.00
1.06
1.07
1.09
1.05
1.05
1.03
1.01
1.04
1.04
1.02
1.08
1.10
1.05
1.06
1.09
1.10
1.07
1.07
1.06
1.02
1.02
1.05
1.02
0.99
1.06
1.06
1.08
1.05
1.04
1.03
1.01
1.05
1.06
1.04
1.10
1.13
1.06
1.07
1.10
1.11
1.09
1.09
1.08
1.03
1.04
1.07
1.04
1.00
1.05
1.08
1.04
1.05
1.02
1.01
1.05
1.07
1.04
1.09
1.10
1.03
1.06
1.11
1.12
1.08
1.07
1.07
1.02
1.04
1.08
1.04
1.01
1.05
1.06
1.09
1.05
1.03
1.02
1.00
1.05
1.07
1.05
1.11
1.13
1.06
1.07
1.11
1.12
1.09
1.08
1.06
0.99
1.00
1.03
1.00
0.98
1.04
1.05
1.09
1.06
1.07
1.05
1.04
1.07
1.06
1.04
1.07
1.09
1.04
1.06
1.11
1.13
1.11
1.10
1.09
1.04
1.03
1.06
1.05
1.01
1.04
1.04
1.07
1.02
1.03
1.02
1.00
1.04
1.05
1.02
1.08
1.11
1.05
1.05
1.09
1.14
1.10
1.09
1.09
1.04
1.05
1.08
1.04
1.01
1.05
1.06
1.08
1.05
1.05
1.00
1.04
1.06
1.04
1.09
1.14
1.07
1.07
1.11
1.13
1.08
1.07
1.06
1.01
1.02
1.07
1.04
0.99
1.04
1.04
1.08
1.05
1.05
1.01
1.01
1.06
1.06
1.03
1.09
1.12
1.05
1.06
1.10
1.12
1.08
1.07
1.06
1.01
1.03
1.08
1.04
1.00
1.05
1.06
1.09
1.04
1.05
1.02
0.99
1.03
1.05
1.03
1.09
1.13
1.06
1.08
1.13
1.16
1.10
1.07
1.06
1.01
1.03
1.06
1.02
0.99
1.05
1.06
1.10
1.08
1.08
1.04
1.01
1.05
1.05
1.03
1.08
1.10
1.06
1.07
1.11
1.12
1.08
1.06
1.07
1.01
1.03
1.06
1.03
0.99
1.03
1.02
1.06
1.02
1.02
1.01
1.00
1.02
1.06
1.04
1.14
1.07
1.08
1.12
1.13
1.09
1.07
1.07
1.02
1.03
1.06
1.04
1.01
1.05
1.05
1.09
1.05
1.07
1.05
1.02
1.05
1.07
1.05
1.09
1.14
1.06
1.07
1.11
1.14
1.08
1.06
1.06
1.01
1.03
1.08
1.05
1.01
1.07
1.06
1.08
1.03
1.04
1.01
0.98
1.03
1.05
1.03
1.08
1.12
1.07
1.09
1.12
1.13
1.09
1.07
1.07
1.02
1.03
1.06
1.03
1.00
1.05
1.06
1.10
1.06
1.06
1.03
1.00
1.04
1.04
1.02
1.06
1.12
1.06
1.08
1.10
1.12
1.07
1.06
1.06
1.01
1.03
1.06
1.04
1.01
1.05
1.05
1.08
1.04
1.07
1.04
1.01
1.05
1.05
1.03
1.08
1.13
1.07
1.06
1.10
1.08
1.07
1.09
1.03
1.04
1.08
1.05
1.00
1.06
1.07
1.09
1.06
1.05
1.02
1.01
1.04
1.06
1.03
1.08
1.12
1.05
1.05
1.09
1.12
1.09
1.07
1.06
1.01
1.01
1.06
1.03
0.99
1.04
1.07
1.10
1.06
1.06
1.03
1.01
1.05
1.04
1.02
1.08
1.15
1.08
1.09
1.12
1.14
1.09
1.08
1.08
1.02
1.03
1.06
1.04
0.99
1.04
1.04
1.08
1.03
1.03
1.01
1.00
1.03
1.03
1.01
1.07
1.14
1.09
1.09
1.12
1.14
1.09
1.08
1.08
1.03
1.02
1.05
1.02
0.98
1.02
1.04
1.08
1.05
1.06
1.06
1.04
1.07
1.08
1.04
1.07
1.09
1.01
1.03
1.07
1.11
1.08
1.08
1.08
1.03
1.08
1.06
1.01
1.04
1.05
1.07
1.03
1.05
1.04
1.01
1.04
1.06
1.03
1.08
1.13
1.05
1.05
1.10
1.13
1.10
1.09
1.09
1.03
1.03
1.07
1.04
1.00
1.04
1.05
1.10
1.07
1.07
1.05
1.02
1.02
1.04
1.02
1.06
1.13
1.06
1.07
1.10
1.13
1.09
1.07
1.07
1.02
1.02
1.06
1.04
0.98
1.02
1.03
1.08
1.03
1.04
1.02
1.01
1.05
1.07
1.05
1.09
1.15
1.08
1.07
1.10
1.13
1.09
1.08
1.09
1.03
1.02
1.05
1.02
0.97
1.04
1.07
1.11
1.07
1.06
1.03
1.01
1.03
1.04
1.02
1.06
1.12
1.06
1.06
1.12
1.14
1.08
1.07
1.07
1.03
1.05
1.07
1.05
0.99
1.04
1.07
1.05
1.05
1.05
1.02
1.05
1.06
1.03
1.04
1.10
1.03
1.04
1.10
1.12
1.09
1.08
1.09
1.04
1.06
1.10
1.09
1.03
1.05
1.06
1.08
1.01
1.01
1.00
1.00
1.03
1.05
1.04
1.10
1.16
1.09
1.08
1.12
1.14
1.08
1.06
1.06
1.01
1.01
1.05
1.04
0.98
1.02
1.04
1.08
1.04
1.04
1.02
1.00
1.03
1.06
1.03
1.07
1.12
1.06
1.07
1.10
1.13
1.08
1.08
1.09
1.04
1.03
1.07
1.05
1.02
1.07
1.08
1.12
1.07
1.07
1.05
1.03
1.05
1.06
1.03
1.06
1.12
1.04
1.04
1.08
1.10
1.06
1.05
1.07
1.03
1.02
1.04
1.03
0.99
1.04
1.06
1.08
1.04
1.05
1.03
1.04
1.06
1.03
1.08
1.15
1.09
1.09
1.13
1.15
1.10
1.07
1.07
1.02
1.02
1.07
1.07
1.03
1.05
1.05
1.07
1.03
1.02
1.01
0.98
1.02
1.04
1.02
1.07
1.14
1.07
1.06
1.10
1.12
1.06
1.04
1.06
1.03
1.03
1.06
1.05
0.99
1.01
1.05
1.09
1.08
1.09
1.07
1.04
1.07
1.06
1.03
1.07
1.13
1.07
1.06
1.10
1.14
1.08
1.05
1.03
1.01
1.02
1.08
1.05
0.98
1.01
1.04
1.07
1.03
1.04
1.03
1.02
1.05
1.09
1.05
1.07
1.13
1.06
1.04
1.07
1.11
1.09
1.09
1.11
1.08
1.08
1.11
1.08
1.00
1.02
1.01
1.05
1.03
1.00
0.97
0.96
1.01
1.06
1.06
1.12
1.13
1.05
1.03
1.06
1.05
1.08
1.09
1.04
1.02
1.05
1.02
1.02
1.10
1.03
0.88
0.84
0.93
1.03
1.09
1.23
1.26
1.13
1.06
1.11
1.02
0.97
1.02
1.15
1.14
1.13
1.17
1.11
1.07
1.09
1.09
1.05
1.10
1.12
1.14
1.08
0.94
0.80
0.84
0.98
1.11
1.15
1.20
1.21
1.07
1.04
1.05
1.08
1.08
1.07
1.07
1.02
1.02
1.07
1.07
1.01
1.04
1.06
1.09
1.06
1.06
1.05
1.01
1.03
1.05
1.02
1.02
1.08
1.02
1.02
1.06
1.09
1.06
1.03
1.04
1.00
1.00
1.06
1.06
1.01
1.05
1.07
1.09
1.05
1.04
1.03
1.02
1.06
1.08
1.05
1.08
1.14
1.07
1.06
1.11
1.14
1.09
1.10
1.03
1.03
1.07
1.09
1.03
1.05
1.07
1.10
1.07
1.07
1.04
1.00
1.01
1.04
1.01
1.06
1.14
1.08
1.04
1.06
1.09
1.06
1.09
1.10
1.06
1.07
1.11
1.12
1.03
1.01
1.00
0.97
0.92
0.93
0.93
0.99
1.05
1.09
1.07
1.10
1.20
1.14
1.10
1.12
1.10
1.03
1.00
1.03
1.01
1.01
1.04
1.03
1.00
1.03
1.06
1.09
1.09
1.12
1.07
0.99
1.01
1.09
1.11
1.11
1.11
1.00
0.96
1.03
1.09
1.09
1.09
1.10
1.04
1.03
1.09
1.08
1.02
1.01
1.01
1.06
1.06
1.09
1.07
1.02
1.01
1.04
1.04
1.08
1.16
1.08
1.07
1.12
1.16
1.13
1.14
1.14
1.09
1.07
1.06
0.94
0.92
0.94
1.01
1.03
1.07
1.09
1.07
1.08
1.10
1.12
1.16
1.19
1.03
0.92
0.87
0.86
0.91
1.00
1.09
1.07
1.09
1.13
1.15
1.08
1.09
1.09
1.10
1.05
1.02
1.00
0.93
0.96
1.03
1.05
1.09
1.17
1.12
1.12
1.19
1.23
1.18
1.10
1.07
0.98
0.95
1.01
1.04
0.97
0.97
1.00
1.03
1.02
1.02
1.01
1.00
1.05
1.08
1.05
1.08
1.14
1.08
1.05
1.08
1.12
1.09
1.09
1.11
1.08
1.04
1.09
1.11
1.06
1.08
1.09
1.11
1.11
1.09
1.09
1.07
1.05
1.07
1.06
1.01
1.02
0.92
0.87
0.97
1.06
1.06
1.01
1.02
0.98
1.00
1.11
1.13
1.04
1.00
0.92
1.06
1.14
1.14
1.14
1.15
1.18
1.12
1.02
1.09
1.01
1.03
1.14
1.26
1.31
1.28
1.15
0.98
0.86
0.89
0.88
0.87
0.95
1.03
1.03
0.97
0.96
0.99
0.99
1.01
1.03
1.02
1.08
1.20
1.11
1.06
1.11
1.14
1.08
1.00
1.05
1.06
1.08
1.14
1.16
1.11
1.12
1.09
1.09
1.06
1.05
1.02
1.01
1.02
1.06
1.03
1.05
1.12
1.07
1.00
1.03
1.10
1.10
1.09
1.09
1.04
1.04
1.11
1.18
1.18
1.20
1.20
1.16
1.04
0.94
0.85
0.76
0.78
0.93
1.03
1.08
1.15
1.06
0.97
1.02
1.10
1.10
1.08
1.06
1.01
1.01
1.08
1.08
1.00
1.04
1.12
1.15
1.10
1.16
1.19
1.11
0.96
0.96
0.96
1.08
1.09
1.14
1.18
1.13
1.01
0.98
1.01
0.99
0.96
1.04
1.03
0.95
0.97
0.99
1.04
1.05
1.10
1.09
1.05
1.07
1.11
1.09
1.14
1.23
1.18
1.13
1.16
1.22
1.16
1.09
1.04
0.99
0.95
0.98
1.00
0.96
1.01
1.05
1.07
1.06
1.01
0.96
0.95
0.95
1.01
1.02
1.09
1.32
1.30
1.22
1.15
1.08
0.95
0.88
0.89
0.92
1.02
1.18
1.29
1.19
1.07
1.00
0.96
0.94
0.96
1.01
1.03
1.02
0.99
0.92
0.91
1.07
1.09
1.09
1.15
1.16
1.17
1.11
1.08
1.00
0.99
1.03
1.06
1.01
1.02
1.08
1.10
1.09
1.08
1.04
1.03
1.05
1.08
1.03
1.05
1.14
1.03
1.09
1.17
1.17
1.14
1.10
1.06
1.05
1.07
1.02
0.92
0.91
0.95
1.01
1.02
1.05
1.01
1.03
1.08
1.17
1.19
1.17
1.16
0.97
0.87
0.94
1.04
1.09
1.09
1.11
1.10
1.10
1.13
1.16
1.10
1.09
1.07
1.06
1.02
0.98
0.96
0.91
0.96
1.07
1.09
1.13
1.18
1.08
1.02
1.06
1.07
1.01
1.00
1.06
1.09
1.10
1.15
1.17
1.06
0.96
0.93
1.02
1.12
1.14
1.07
0.99
0.98
1.04
1.10
1.16
1.24
1.13
1.06
1.04
1.03
1.03
1.04
1.05
0.97
0.88
0.97
1.03
0.97
1.02
1.09
1.10
1.09
1.06
1.04
1.02
1.01
1.04
1.01
0.93
1.03
1.03
1.05
1.11
1.15
1.16
1.15
1.12
1.09
1.11
1.13
1.06
1.06
1.10
1.10
1.05
0.97
0.90
0.87
0.92
1.04
1.12
1.18
1.28
1.20
1.04
1.02
1.05
1.05
1.06
1.07
1.04
0.98
1.00
1.03
0.97
1.00
1.07
1.09
1.10
1.09
1.08
1.05
1.02
1.02
1.00
1.04
1.15
1.16
1.18
1.25
1.22
1.10
0.99
0.95
0.97
0.97
1.03
1.06
0.95
0.92
0.97
1.05
1.03
1.04
1.15
1.21
1.17
1.11
0.96
0.80
0.84
0.87
0.90
1.02
1.15
1.18
1.17
1.16
1.11
1.08
1.08
1.09
1.03
1.03
1.07
1.07
1.04
1.05
1.03
0.99
1.00
1.08
1.09
1.12
1.24
1.20
1.12
1.12
1.11
1.07
1.00
1.03
1.05
1.05
1.07
1.00
0.95
1.01
1.02
1.00
1.01
1.01
1.01
1.03
1.07
1.04
1.03
1.12
1.10
1.04
1.11
1.18
1.13
1.06
1.06
1.09
1.14
1.25
1.25
1.11
0.99
0.87
0.83
0.84
0.89
0.98
1.07
1.16
1.24
1.23
1.15
1.07
0.89
0.81
0.93
1.03
1.08
1.14
1.18
1.09
1.02
1.01
0.99
1.00
1.06
1.12
1.13
1.13
1.12
1.22
1.24
1.22
1.17
0.93
0.83
0.87
0.82
0.83
0.96
1.08
1.17
1.22
1.23
1.16
1.08
1.04
1.00
0.90
0.88
0.93
0.99
0.97
1.02
1.08
1.10
1.14
1.19
1.15
1.13
1.16
1.10
1.04
1.09
1.14
1.14
1.11
1.09
1.06
1.00
1.05
1.08
1.03
1.02
1.05
1.05
1.04
1.05
0.99
0.92
0.98
0.98
0.99
1.12
1.15
1.20
1.25
1.27
1.19
1.12
1.05
1.00
0.99
1.01
1.00
0.90
0.89
0.98
1.07
1.11
1.13
1.11
1.04
0.98
0.99
1.01
1.06
1.11
1.05
0.98
1.05
1.12
1.14
1.11
1.11
1.09
0.99
1.00
1.05
1.04
1.11
1.18
1.15
1.16
1.11
1.04
0.96
0.98
1.00
0.96
0.98
1.03
1.13
1.16
1.23
1.26
1.06
0.84
0.77
0.83
0.93
1.07
1.16
1.12
1.09
1.06
1.03
1.06
1.07
1.10
1.10
1.12
1.09
1.01
0.95
1.04
1.04
1.05
1.14
1.18
1.16
1.10
1.08
1.03
0.99
1.05
1.09
1.03
1.04
1.07
1.03
1.00
0.97
0.99
0.96
0.96
1.02
1.03
1.12
1.15
1.14
1.16
1.19
1.17
1.14
1.17
1.21
1.19
1.17
1.16
1.01
0.87
0.80
0.83
0.87
0.88
0.99
1.06
1.05
1.09
1.07
1.06
1.08
1.03
0.99
1.08
1.15
1.13
1.11
1.09
1.05
1.02
1.02
1.03
1.01
1.02
1.08
1.10
1.07
1.13
1.18
1.16
1.09
1.08
1.07
1.06
1.10
1.05
0.95
0.99
1.06
1.05
1.02
1.02
1.06
1.03
1.08
1.09
1.01
0.95
0.99
1.03
1.03
1.05
1.09
1.08
1.11
1.15
1.15
1.14
1.15
1.05
0.96
0.98
1.06
1.07
1.05
1.06
1.08
1.06
1.07
1.05
1.02
1.01
1.08
1.12
1.10
1.06
1.10
1.06
0.99
0.99
0.96
0.92
1.05
1.08
1.09
1.13
1.11
1.08
1.08
1.03
0.99
1.11
1.19
1.16
1.13
1.18
1.17
1.10
0.94
0.83
0.78
0.85
1.04
1.13
1.13
1.16
1.11
1.06
1.07
1.09
1.09
1.05
1.04
1.02
0.99
1.03
1.04
0.98
0.98
1.05
1.08
1.11
1.10
1.09
1.03
0.95
1.00
1.04
1.09
1.23
1.23
1.18
1.16
1.13
1.04
0.93
0.91
0.94
0.99
1.03
1.08
1.02
1.00
1.03
1.01
1.05
1.05
1.07
1.08
1.03
0.99
0.98
1.01
1.16
1.22
1.19
1.20
1.23
1.13
1.04
1.00
0.97
0.92
0.91
1.01
1.01
1.02
1.10
1.12
1.10
1.08
1.05
1.02
1.02
1.08
1.06
1.02
1.09
1.06
1.01
1.04
1.11
1.11
1.08
1.16
1.19
1.20
1.18
1.08
0.93
0.84
0.79
0.83
0.92
1.03
1.15
1.21
1.21
1.15
1.03
1.01
0.96
0.91
0.99
1.13
1.19
1.17
1.17
1.10
0.95
0.91
0.95
0.94
0.98
1.09
1.16
1.22
1.22
1.20
1.12
1.07
1.06
0.99
0.88
0.97
1.02
1.03
1.09
1.13
1.15
1.05
1.02
1.08
1.08
1.12
1.13
1.08
1.08
1.13
1.17
1.16
1.09
1.02
0.83
0.72
0.79
0.83
0.96
1.13
1.18
1.13
1.16
1.19
1.15
1.06
1.05
1.05
1.03
1.07
1.10
1.00
0.90
0.94
1.03
1.09
1.09
1.09
1.07
1.08
1.14
1.12
1.11
1.15
1.10
0.98
1.01
1.09
1.12
1.12
1.12
1.06
0.97
0.94
0.93
0.90
1.03
1.10
1.18
1.12
1.04
0.96
0.97
1.07
1.10
1.08
1.17
1.21
1.15
1.11
1.06
1.03
1.02
1.06
1.08
1.10
1.13
1.17
1.08
0.97
0.98
0.93
0.93
0.95
1.00
1.02
1.03
1.09
1.07
1.04
1.11
1.09
1.04
1.06
1.08
1.09
1.06
1.06
1.07
1.06
1.10
1.10
1.05
1.02
1.09
1.09
1.11
1.08
1.07
1.05
1.04
1.08
1.05
1.00
1.10
1.13
1.06
1.10
1.15
1.15
1.09
1.05
1.02
0.95
1.01
1.05
1.01
1.00
1.07
1.05
1.05
1.03
1.05
1.04
1.03
1.03
1.00
1.01
1.11
1.12
1.06
1.07
1.08
1.04
1.03
1.09
1.09
1.06
1.09
1.14
1.08
0.98
1.01
1.01
1.03
1.08
1.03
1.03
1.09
1.09
1.04
1.09
1.12
1.06
1.08
1.13
1.11
1.07
1.07
1.06
0.99
1.01
1.05
1.00
0.98
1.05
1.06
1.07
1.03
1.03
1.00
1.00
1.04
1.04
1.03
1.10
1.12
1.07
1.09
1.12
1.12
1.09
1.10
1.09
1.05
1.06
1.09
1.04
1.02
1.07
1.07
1.08
1.05
1.05
1.03
1.01
1.04
1.04
1.02
1.10
1.12
1.06
1.09
1.13
1.12
1.08
1.07
1.06
1.01
1.03
1.07
1.03
1.00
1.03
1.03
1.05
1.05
1.05
1.03
1.02
1.07
1.07
1.04
1.11
1.11
1.05
1.08
1.11
1.12
1.08
1.08
1.07
1.02
1.05
1.05
1.01
0.99
1.05
1.05
1.07
1.05
1.06
1.04
1.02
1.06
1.03
1.09
1.11
1.05
1.06
1.11
1.11
1.08
1.09
1.09
1.04
1.06
1.09
1.05
1.02
1.06
1.07
1.08
1.05
1.03
1.01
1.01
1.06
1.05
1.05
1.11
1.11
1.01
1.04
1.09
1.10
1.07
1.07
1.06
1.02
1.04
1.08
1.03
0.99
1.01
1.01
1.05
1.04
1.03
1.01
1.00
1.05
1.05
1.05
1.13
1.14
1.07
1.09
1.13
1.14
1.10
1.09
1.08
1.02
1.04
1.08
1.02
0.99
1.05
1.05
1.08
1.05
1.06
1.03
1.01
1.05
1.06
1.03
1.09
1.12
1.04
1.06
1.10
1.11
1.07
1.07
1.06
1.02
1.03
1.06
1.03
0.99
1.07
1.07
1.09
1.06
1.05
1.03
1.02
1.05
1.05
1.04
1.10
1.10
1.04
1.13
1.12
1.09
1.08
1.07
1.02
1.04
1.07
1.03
1.00
1.05
1.06
1.08
1.05
1.05
1.03
1.01
1.06
1.07
1.03
1.09
1.12
1.04
1.07
1.11
1.11
1.07
1.08
1.07
1.02
1.04
1.09
1.03
0.99
1.05
1.06
1.07
1.03
1.02
1.00
1.01
1.06
1.06
1.05
1.11
1.12
1.04
1.05
1.10
1.12
1.10
1.09
1.08
1.02
1.03
1.07
1.03
0.99
1.04
1.05
1.08
1.05
1.05
1.02
1.01
1.05
1.05
1.03
1.08
1.09
1.03
1.07
1.10
1.12
1.07
1.06
1.05
1.00
1.02
1.07
1.04
1.01
1.05
1.07
1.09
1.05
1.05
1.02
1.01
1.06
1.06
1.05
1.10
1.11
1.05
1.07
1.12
1.13
1.08
1.08
1.03
1.04
1.07
1.03
0.99
1.05
1.05
1.08
1.05
1.03
1.01
1.00
1.05
1.07
1.04
1.11
1.13
1.06
1.07
1.11
1.12
1.09
1.08
1.06
1.02
1.04
1.08
1.04
1.00
1.06
1.06
1.08
1.04
1.02
1.01
1.00
1.05
1.05
1.02
1.10
1.15
1.07
1.10
1.15
1.16
1.10
1.08
1.04
0.98
0.98
1.04
1.01
1.00
1.05
1.07
1.09
1.04
1.04
1.01
0.99
1.03
1.03
1.02
1.08
1.11
1.03
1.05
1.11
1.14
1.09
1.09
1.08
1.01
1.02
1.07
1.05
1.01
1.06
1.07
1.10
1.06
1.07
1.04
1.01
1.05
1.06
1.02
1.08
1.13
1.06
1.08
1.11
1.12
1.08
1.07
1.07
1.01
1.03
1.06
1.02
1.04
1.06
1.07
1.04
1.05
1.02
1.01
1.06
1.06
1.03
1.09
1.12
1.04
1.07
1.10
1.12
1.09
1.09
1.08
1.03
1.04
1.07
1.03
1.00
1.05
1.04
1.07
1.03
1.05
1.05
1.01
1.06
1.05
1.04
1.09
1.12
1.05
1.06
1.10
1.12
1.09
1.08
1.08
1.03
1.02
1.07
1.03
1.01
1.07
1.07
1.09
1.05
1.05
1.02
1.01
1.04
1.06
1.03
1.09
1.12
1.06
1.06
1.09
1.12
1.09
1.09
1.09
1.04
1.05
1.08
1.04
1.00
1.04
1.06
1.07
1.02
1.03
1.00
0.96
1.01
1.05
1.04
1.11
1.16
1.09
1.08
1.10
1.12
1.07
1.06
1.05
1.01
1.04
1.06
1.00
0.99
1.05
1.06
1.09
1.05
1.03
1.01
1.06
1.06
1.05
1.11
1.13
1.04
1.05
1.09
1.11
1.07
1.07
1.07
1.01
1.04
1.09
1.06
1.02
1.06
1.06
1.09
1.05
1.05
1.03
1.01
1.05
1.05
1.03
1.07
1.11
1.05
1.06
1.10
1.13
1.09
1.08
1.09
1.04
1.04
1.08
1.04
1.00
1.04
1.05
1.08
1.04
1.05
1.03
1.01
1.05
1.04
1.03
1.09
1.14
1.08
1.08
1.12
1.13
1.08
1.08
1.08
1.02
1.03
1.07
1.04
1.00
1.05
1.05
1.09
1.04
1.04
1.03
1.00
1.03
1.05
1.02
1.09
1.14
1.06
1.07
1.11
1.13
1.09
1.07
1.07
1.02
1.03
1.07
1.03
1.00
1.04
1.04
1.08
1.04
1.06
1.03
1.01
1.05
1.06
1.10
1.14
1.07
1.07
1.11
1.13
1.09
1.06
1.06
1.01
1.04
1.09
1.05
1.02
1.06
1.07
1.11
1.06
1.06
1.02
1.00
1.03
1.05
1.01
1.07
1.12
1.05
1.06
1.10
1.11
1.07
1.06
1.07
1.01
1.02
1.06
1.00
0.99
1.05
1.07
1.11
1.07
1.09
1.06
1.04
1.07
1.06
1.03
1.09
1.13
1.06
1.08
1.11
1.13
1.09
1.08
1.08
1.02
1.01
1.06
1.02
0.97
1.02
1.23
1.15
1.06
1.03
1.02
1.00
1.02
1.04
1.02
1.08
1.13
1.07
1.08
1.12
1.14
1.09
1.08
1.07
1.02
1.02
1.05
1.02
0.97
1.01
1.00
1.04
1.00
1.02
1.00
0.98
1.02
1.04
1.02
1.07
1.12
1.06
1.07
1.13
1.07
1.07
1.07
1.03
1.04
1.08
1.06
1.01
1.05
1.05
1.09
1.04
1.04
1.03
1.01
1.04
1.06
1.04
1.09
1.14
1.08
1.07
1.10
1.13
1.10
1.09
1.09
1.03
1.03
1.07
1.05
1.00
1.04
1.06
1.08
1.04
1.05
1.02
0.98
1.03
1.04
1.02
1.09
1.14
1.08
1.07
1.10
1.13
1.09
1.08
1.08
1.03
1.03
1.07
1.05
1.00
1.05
1.05
1.09
1.04
1.03
1.02
1.01
1.05
1.07
1.04
1.09
1.14
1.06
1.07
1.10
1.13
1.08
1.07
1.07
1.02
1.03
1.06
1.03
1.01
1.05
1.06
1.09
1.05
1.04
1.02
1.01
1.04
1.06
1.03
1.07
1.11
1.04
1.05
1.10
1.12
1.08
1.08
1.08
1.02
1.07
1.05
1.00
1.04
1.05
1.09
1.05
1.05
1.03
1.01
1.05
1.06
1.04
1.08
1.13
1.06
1.06
1.09
1.11
1.09
1.10
1.10
1.05
1.04
1.07
1.05
0.99
1.04
1.04
1.07
1.04
1.04
1.01
1.00
1.05
1.09
1.08
1.11
1.15
1.06
1.04
1.08
1.11
1.08
1.07
1.07
1.03
1.03
1.06
1.04
0.98
1.02
1.04
1.09
1.05
1.05
1.03
1.00
1.03
1.05
1.03
1.07
1.12
1.05
1.05
1.10
1.11
1.08
1.08
1.10
1.05
1.05
1.08
1.06
1.01
1.05
1.06
1.09
1.04
1.05
1.03
1.01
1.04
1.06
1.04
1.08
1.13
1.06
1.04
1.08
1.11
1.09
1.08
1.08
1.03
1.02
1.06
1.04
0.99
1.04
1.08
1.04
1.05
1.01
1.01
1.05
1.07
1.05
1.08
1.14
1.07
1.07
1.10
1.13
1.09
1.07
1.08
1.01
1.02
1.07
1.04
0.99
1.03
1.05
1.08
1.04
1.04
1.04
1.02
1.04
1.05
1.03
1.07
1.13
1.07
1.07
1.11
1.15
1.10
1.09
1.09
1.03
1.01
1.04
1.05
1.00
1.04
1.05
1.09
1.05
1.05
1.04
1.02
1.04
1.06
1.03
1.06
1.12
1.06
1.05
1.08
1.11
1.08
1.06
1.07
1.03
1.02
1.08
1.06
1.01
1.04
1.04
1.08
1.04
1.05
1.03
1.01
1.04
1.06
1.04
1.05
1.12
1.05
1.05
1.11
1.13
1.09
1.08
1.09
1.03
1.03
1.07
1.05
1.00
1.03
1.05
1.09
1.03
1.03
1.02
1.05
1.07
1.04
1.08
1.13
1.06
1.05
1.09
1.13
1.09
1.08
1.08
1.03
1.03
1.07
1.06
1.01
1.03
1.04
1.07
1.05
1.06
1.04
1.02
1.04
1.06
1.04
1.07
1.13
1.06
1.05
1.10
1.13
1.09
1.07
1.06
1.03
1.03
1.07
1.05
1.00
1.03
1.05
1.08
1.04
1.04
1.02
1.01
1.02
1.04
1.03
1.06
1.13
1.06
1.07
1.11
1.14
1.08
1.06
1.06
1.02
1.03
1.06
1.05
1.00
1.03
1.06
1.09
1.05
1.05
1.04
1.02
1.04
1.06
1.03
1.06
1.14
1.08
1.07
1.10
1.13
1.08
1.07
1.08
1.03
1.02
1.06
1.05
1.00
1.04
1.05
1.08
1.04
1.04
1.02
1.01
1.02
1.05
1.04
1.15
1.08
1.06
1.09
1.13
1.08
1.06
1.08
1.03
1.03
1.07
1.04
0.98
1.04
1.05
1.09
1.06
1.05
1.03
1.02
1.04
1.06
1.03
1.06
1.14
1.07
1.05
1.08
1.11
1.09
1.09
1.09
1.04
1.03
1.07
1.06
1.01
1.04
1.05
1.09
1.04
1.05
1.04
1.01
1.03
1.05
1.01
1.04
1.11
1.07
1.07
1.11
1.15
1.10
1.09
1.08
1.03
1.02
1.05
1.04
0.98
1.01
1.04
1.08
1.05
1.05
1.03
1.01
1.03
1.05
1.04
1.07
1.14
1.07
1.05
1.09
1.13
1.09
1.07
1.07
1.02
1.02
1.06
1.04
0.99
1.03
1.06
1.09
1.04
1.06
1.05
1.02
1.03
1.06
1.04
1.06
1.13
1.07
1.06
1.10
1.09
1.07
1.09
1.03
1.01
1.05
1.05
1.02
1.04
1.07
1.09
1.06
1.05
1.03
1.01
1.03
1.06
1.03
1.06
1.14
1.08
1.04
1.08
1.12
1.09
1.07
1.09
1.05
1.03
1.07
1.07
1.02
1.04
1.06
1.09
1.05
1.05
1.03
1.00
1.02
1.05
1.04
1.07
1.14
1.08
1.07
1.10
1.13
1.09
1.08
1.09
1.04
1.03
1.06
1.06
1.00
1.03
1.04
1.08
1.04
1.02
1.02
1.01
1.04
1.07
1.05
1.07
1.15
1.08
1.06
1.09
1.12
1.09
1.08
1.09
1.03
1.02
1.06
1.05
0.98
0.99
1.02
1.08
1.07
1.08
1.06
1.04
1.05
1.08
1.04
1.06
1.13
1.07
1.04
1.08
1.12
1.09
1.06
1.09
1.06
1.07
1.07
1.00
1.03
1.05
1.08
1.04
1.03
1.00
0.99
1.01
1.06
1.03
1.05
1.13
1.08
1.07
1.09
1.11
1.09
1.09
1.09
1.04
1.03
1.08
1.07
1.01
1.04
1.07
1.09
1.06
1.06
1.04
0.99
1.02
1.05
1.05
1.07
1.15
1.09
1.06
1.10
1.14
1.10
1.08
1.08
1.03
1.02
1.06
1.06
1.00
1.01
1.06
1.07
1.03
1.03
1.04
1.02
1.04
1.07
1.05
1.07
1.14
1.08
1.05
1.09
1.12
1.10
1.07
1.08
1.05
1.03
1.08
1.05
1.00
1.03
1.07
1.09
1.04
1.05
1.03
1.00
1.01
1.05
1.03
1.06
1.14
1.07
1.04
1.09
1.14
1.11
1.09
1.09
1.04
1.03
1.07
1.07
1.01
1.03
1.07
1.04
1.04
1.03
1.02
1.05
1.08
1.06
1.05
1.11
1.06
1.04
1.09
1.14
1.10
1.08
1.07
1.02
1.00
1.04
1.04
0.99
1.03
1.05
1.08
1.05
1.06
1.05
1.03
1.02
1.05
1.04
1.07
1.13
1.08
1.06
1.10
1.13
1.09
1.08
1.08
1.03
1.02
1.04
1.04
1.00
1.02
1.05
1.07
1.05
1.05
1.04
1.00
1.00
1.03
1.01
1.04
1.14
1.09
1.09
1.14
1.19
1.13
1.08
1.06
0.99
1.00
1.05
1.06
1.02
1.05
1.06
1.09
1.07
1.07
1.04
1.01
1.04
1.06
1.03
1.04
1.12
1.06
1.01
1.02
1.09
1.08
1.05
1.08
1.04
1.03
1.07
1.07
1.02
1.05
1.07
1.08
1.04
1.04
1.05
1.09
1.09
1.07
1.07
1.13
1.05
1.02
1.06
1.11
1.10
1.11
1.14
1.10
1.07
1.08
1.04
0.95
0.94
0.97
1.02
1.01
1.01
1.03
1.01
1.03
1.07
1.05
1.05
1.14
1.07
1.00
1.04
1.09
1.08
1.07
1.09
1.05
1.04
1.08
1.10
1.05
1.09
1.10
1.13
1.09
1.09
1.07
1.05
1.07
1.10
1.07
1.07
1.13
1.07
1.04
1.05
1.11
1.08
1.07
1.08
0.98
0.88
0.88
0.88
0.84
0.88
0.96
1.05
1.09
1.09
1.07
1.03
1.04
1.08
1.04
1.07
1.17
1.14
1.12
1.17
1.25
1.25
1.27
1.26
1.22
1.15
1.09
1.07
0.97
0.89
0.90
0.95
0.92
0.86
0.79
0.76
0.84
0.99
1.08
1.16
1.19
1.05
1.04
1.11
1.16
1.23
1.27
1.24
1.19
1.16
1.12
1.02
0.97
0.93
0.94
0.96
1.08
1.13
1.06
1.01
0.96
0.86
0.78
0.90
0.97
1.06
1.09
1.13
1.16
1.14
1.16
1.12
1.09
1.16
1.19
1.19
1.20
1.22
1.25
1.23
1.22
1.19
1.16
1.10
1.06
0.99
1.00
1.08
1.00
0.95
0.96
0.92
0.81
0.76
0.81
0.82
0.86
0.93
0.98
0.92
0.96
1.02
1.09
1.13
1.21
1.25
1.15
1.05
0.95
0.91
1.02
1.20
1.24
1.21
1.03
0.89
0.93
1.01
1.13
1.18
1.10
1.09
1.07
1.00
1.03
1.10
1.16
1.13
1.09
1.04
1.07
1.14
1.21
1.21
1.15
1.17
1.14
1.09
1.09
1.10
1.01
1.02
0.96
0.97
1.02
1.02
0.95
0.93
0.95
0.95
0.92
0.96
1.00
0.99
1.01
1.04
0.97
0.96
1.03
0.93
0.85
0.98
1.09
1.13
1.16
1.21
1.18
1.09
1.11
1.08
1.02
1.00
1.02
1.03
1.05
1.07
1.10
1.09
1.10
1.16
1.16
1.17
1.22
1.14
1.08
1.13
1.18
1.15
1.11
1.12
1.09
1.07
1.09
1.07
0.97
0.98
1.02
1.07
1.04
1.02
0.97
0.87
0.88
0.94
1.00
1.07
1.17
1.10
1.06
1.13
1.21
1.18
1.09
1.04
0.98
0.95
1.00
1.03
1.01
1.03
1.06
1.07
1.05
1.04
1.01
0.98
0.99
1.00
0.99
1.01
1.12
1.09
1.04
1.09
1.12
1.09
1.09
1.12
1.12
1.08
1.07
1.01
1.02
1.05
1.09
1.08
1.09
1.03
0.87
0.90
1.00
0.93
0.94
1.06
1.03
1.08
1.13
1.23
1.24
1.18
1.14
1.08
1.02
1.04
1.08
1.06
1.09
1.13
1.16
1.16
1.17
1.14
1.06
1.00
1.01
0.99
0.98
1.10
1.10
1.06
1.09
1.11
1.08
1.03
1.02
0.97
0.92
0.99
1.03
0.97
0.96
1.01
1.03
1.02
1.02
1.04
1.05
1.08
1.14
1.12
1.11
1.18
1.11
1.03
1.05
1.08
1.05
1.03
1.05
1.02
0.99
1.03
1.04
1.00
1.02
1.08
1.10
1.08
1.07
1.04
1.02
1.02
1.05
1.05
1.07
1.17
1.12
1.09
1.12
1.18
1.17
1.13
1.09
1.02
0.96
0.99
1.03
1.00
1.03
1.11
1.11
1.07
1.03
1.01
0.92
0.94
0.92
0.93
1.04
1.01
1.02
1.12
1.19
1.15
1.13
1.13
1.08
1.04
1.09
1.14
1.06
1.01
1.03
1.03
1.03
1.04
1.08
1.09
1.08
1.10
1.07
1.06
1.16
1.12
1.06
1.07
1.09
1.07
1.04
1.04
1.01
0.97
1.02
1.04
0.99
0.98
1.04
1.07
1.06
1.06
1.06
1.03
1.05
1.09
1.07
1.08
1.15
1.09
1.03
1.05
1.09
1.08
1.07
1.07
1.05
1.03
1.07
1.10
1.02
1.00
1.02
1.04
1.03
1.03
1.03
1.02
1.02
1.06
1.04
1.05
1.14
1.12
1.07
1.09
1.14
1.13
1.10
1.12
1.09
1.04
1.07
1.09
1.02
1.03
1.07
1.07
1.06
1.04
1.04
1.06
1.13
1.07
1.03
1.05
1.00
0.99
1.02
1.08
1.06
1.04
1.04
1.04
1.03
1.08
1.06
0.98
0.97
1.02
1.04
1.04
1.02
1.04
1.02
1.03
1.06
1.04
1.05
1.18
1.13
1.04
1.06
1.12
1.13
1.14
1.13
1.07
1.00
1.02
1.03
0.99
1.00
1.05
1.08
1.08
1.06
1.04
1.01
1.01
1.06
1.04
1.04
1.12
1.09
1.05
1.09
1.12
1.10
1.08
1.07
1.04
1.02
1.07
1.09
1.02
1.02
1.05
1.06
1.06
1.05
1.04
1.01
1.01
1.05
1.04
1.04
1.13
1.11
1.06
1.09
1.15
1.12
1.08
1.08
1.06
1.02
1.05
1.06
1.00
1.01
1.05
1.04
1.05
1.03
1.02
1.01
1.01
1.05
1.03
1.03
1.12
1.06
1.09
1.12
1.10
1.07
1.08
1.05
1.01
1.05
1.07
1.02
1.03
1.05
1.06
1.06
1.06
1.05
1.02
1.03
1.06
1.05
1.04
1.13
1.10
1.05
1.08
1.12
1.10
1.08
1.08
1.05
1.01
1.05
1.08
1.00
1.01
1.05
1.06
1.08
1.05
1.05
1.02
1.02
1.07
1.05
1.04
1.13
1.10
1.05
1.07
1.11
1.11
1.10
1.10
1.08
1.03
1.05
1.06
0.99
0.98
1.02
1.04
1.04
1.04
1.04
1.01
1.01
1.06
1.05
1.03
1.11
1.07
1.01
1.08
1.12
1.10
1.07
1.08
1.06
1.02
1.06
1.09
1.03
1.02
1.06
1.07
1.07
1.05
1.03
1.01
1.00
1.07
1.06
1.04
1.12
1.10
1.05
1.08
1.12
1.10
1.07
1.04
1.01
1.05
1.08
1.01
1.01
1.07
1.07
1.08
1.04
1.03
1.01
1.01
1.06
1.05
1.04
1.11
1.09
1.04
1.08
1.11
1.09
1.06
1.08
1.04
1.01
1.03
1.06
1.01
1.02
1.06
1.08
1.07
1.05
1.04
1.01
1.02
1.06
1.06
1.05
1.13
1.11
1.05
1.08
1.12
1.10
1.09
1.09
1.06
1.02
1.05
1.07
1.01
1.01
1.06
1.07
1.08
1.04
1.01
0.99
1.00
1.04
1.03
1.05
1.12
1.10
1.07
1.09
1.12
1.10
1.07
1.07
1.05
1.01
1.04
1.07
1.01
1.00
1.06
1.05
1.05
1.04
1.05
1.03
1.03
1.06
1.05
1.04
1.13
1.11
1.05
1.09
1.12
1.11
1.07
1.07
1.05
1.01
1.04
1.03
1.02
1.06
1.06
1.06
1.04
1.03
1.02
1.02
1.06
1.04
1.04
1.11
1.10
1.05
1.07
1.10
1.09
1.08
1.09
1.07
1.02
1.05
1.08
1.02
1.00
1.05
1.06
1.06
1.04
1.04
1.01
1.01
1.06
1.05
1.04
1.12
1.09
1.06
1.09
1.12
1.11
1.08
1.08
1.06
1.01
1.04
1.07
1.02
1.00
1.03
1.04
1.06
1.04
1.04
1.01
1.01
1.05
1.05
1.05
1.12
1.11
1.05
1.08
1.12
1.11
1.08
1.08
1.06
1.02
1.05
1.08
1.01
0.99
1.04
1.07
1.08
1.06
1.06
1.03
1.02
1.05
1.04
1.02
1.10
1.12
1.07
1.09
1.13
1.10
1.05
1.04
1.02
0.99
1.03
1.07
1.02
1.01
1.05
1.06
1.04
1.04
1.02
1.02
1.06
1.05
1.03
1.11
1.11
1.04
1.06
1.10
1.11
1.08
1.08
1.07
1.02
1.05
1.07
1.02
1.01
1.06
1.07
1.07
1.05
1.04
1.02
1.00
1.05
1.04
1.04
1.13
1.12
1.06
1.09
1.13
1.11
1.08
1.08
1.06
1.02
1.05
1.08
1.03
1.01
1.06
1.06
1.07
1.02
1.03
1.01
1.01
1.07
1.06
1.04
1.12
1.12
1.06
1.08
1.12
1.11
1.07
1.07
1.05
1.01
1.04
1.06
1.02
1.01
1.06
1.06
1.07
1.04
1.04
1.02
1.01
1.06
1.04
1.03
1.09
1.10
1.04
1.07
1.11
1.10
1.08
1.07
1.05
1.02
1.05
1.08
1.03
1.01
1.05
1.06
1.07
1.05
1.05
1.03
1.01
1.08
1.05
1.11
1.10
1.05
1.08
1.11
1.10
1.08
1.08
1.06
1.01
1.04
1.08
1.03
1.00
1.04
1.03
1.06
1.02
1.34
1.58
1.25
1.12
1.04
1.01
1.09
1.09
1.05
1.09
1.14
1.15
1.11
1.11
1.08
1.02
1.02
1.04
0.97
0.91
0.94
0.94
0.94
0.92
0.92
0.89
0.89
0.94
0.94
0.94
1.04
1.06
1.00
1.04
1.09
1.09
1.07
1.08
1.06
1.02
1.04
1.07
1.02
1.00
1.06
1.07
1.08
1.04
1.03
1.01
1.01
1.05
1.04
1.03
1.11
1.11
1.05
1.06
1.11
1.12
1.10
1.09
1.09
1.03
1.05
1.09
1.03
1.00
1.05
1.06
1.07
1.04
1.04
1.03
1.01
1.06
1.05
1.04
1.11
1.12
1.07
1.11
1.13
1.09
1.09
1.07
1.03
1.05
1.07
1.04
1.02
1.06
1.06
1.06
1.03
1.04
1.01
1.00
1.06
1.06
1.04
1.10
1.11
1.06
1.08
1.11
1.11
1.08
1.08
1.07
1.02
1.05
1.07
1.02
1.00
1.08
1.07
1.08
1.05
1.05
1.02
1.01
1.06
1.06
1.04
1.11
1.11
1.05
1.07
1.10
1.10
1.07
1.07
1.05
1.02
1.06
1.09
1.04
1.01
1.05
1.06
1.07
1.04
1.04
1.01
0.99
1.04
1.02
1.01
1.07
1.09
1.03
1.09
1.15
1.15
1.10
1.09
1.08
1.03
1.05
1.08
1.03
1.00
1.05
1.05
1.07
1.05
1.06
1.03
1.02
1.07
1.06
1.03
1.10
1.12
1.03
1.05
1.09
1.10
1.08
1.06
1.00
1.03
1.06
1.01
0.99
1.04
1.05
1.08
1.04
1.03
1.02
1.02
1.08
1.06
1.04
1.11
1.12
1.06
1.08
1.11
1.12
1.09
1.08
1.07
1.01
1.04
1.09
1.04
1.00
1.05
1.06
1.08
1.04
1.04
1.02
1.01
1.06
1.04
1.02
1.10
1.12
1.05
1.07
1.11
1.13
1.08
1.06
1.05
1.02
1.05
1.07
1.04
1.00
1.05
1.05
1.08
1.04
1.05
1.02
1.01
1.06
1.06
1.04
1.09
1.11
1.05
1.08
1.11
1.12
1.09
1.08
1.07
1.01
1.03
1.07
1.02
0.99
1.05
1.06
1.08
1.05
1.05
1.03
1.01
1.05
1.04
1.02
1.09
1.13
1.07
1.08
1.11
1.12
1.09
1.08
1.06
1.01
1.03
1.06
1.00
1.05
1.03
1.07
1.04
1.06
1.02
1.00
1.05
1.05
1.03
1.09
1.12
1.04
1.06
1.10
1.12
1.09
1.08
1.05
1.01
1.03
1.08
1.04
1.01
1.06
1.06
1.08
1.05
1.05
1.03
1.01
1.06
1.05
1.04
1.10
1.13
1.06
1.08
1.11
1.12
1.07
1.07
1.07
1.03
1.05
1.09
1.04
1.00
1.04
1.05
1.07
1.04
1.04
1.02
1.00
1.05
1.05
1.03
1.09
1.12
1.05
1.06
1.11
1.12
1.09
1.08
1.07
1.02
1.04
1.06
1.02
0.99
1.04
1.04
1.06
1.03
1.04
1.03
1.00
1.03
1.05
1.01
1.10
1.12
1.06
1.08
1.12
1.13
1.09
1.07
1.06
1.01
1.03
1.06
1.02
0.99
1.05
1.07
1.09
1.06
1.04
1.01
1.05
1.05
1.03
1.09
1.12
1.05
1.07
1.09
1.10
1.07
1.06
1.07
1.03
1.05
1.09
1.04
1.00
1.05
1.06
1.08
1.04
1.06
1.02
1.01
1.06
1.06
1.05
1.10
1.13
1.06
1.07
1.09
1.11
1.08
1.09
1.07
1.03
1.05
1.07
1.03
1.00
1.05
1.04
1.07
1.03
1.03
1.01
0.98
1.03
1.06
1.04
1.09
1.12
1.05
1.07
1.10
1.12
1.08
1.08
1.07
1.02
1.03
1.07
1.03
1.00
1.05
1.05
1.08
1.05
1.03
1.02
1.00
1.06
1.06
1.04
1.09
1.13
1.05
1.06
1.09
1.11
1.08
1.07
1.07
1.02
1.02
1.06
1.04
1.01
1.05
1.06
1.08
1.05
1.05
1.03
1.01
1.05
1.04
1.07
1.11
1.05
1.04
1.09
1.12
1.09
1.09
1.10
1.04
1.04
1.07
1.03
0.99
1.04
1.05
1.07
1.04
1.03
1.01
0.99
1.04
1.04
1.04
1.10
1.14
1.07
1.09
1.12
1.12
1.09
1.08
1.06
1.00
1.01
1.06
1.03
1.00
1.05
1.06
1.09
1.05
1.05
1.02
1.01
1.06
1.07
1.04
1.09
1.12
1.07
1.07
1.10
1.12
1.08
1.08
1.07
1.02
1.03
1.08
1.05
0.99
1.03
1.04
1.08
1.05
1.04
1.02
1.00
1.05
1.05
1.03
1.09
1.12
1.05
1.06
1.10
1.13
1.07
1.06
1.06
1.03
1.05
1.08
1.04
1.00
1.05
1.05
1.08
1.04
1.04
1.01
1.00
1.05
1.05
1.03
1.09
1.13
1.06
1.09
1.11
1.09
1.09
1.08
1.03
1.04
1.07
1.04
1.00
1.05
1.05
1.08
1.04
1.04
1.03
1.01
1.03
1.06
1.03
1.09
1.14
1.07
1.07
1.10
1.11
1.09
1.07
1.07
1.01
1.01
1.06
1.03
0.99
1.04
1.07
1.09
1.04
1.04
1.02
0.99
1.05
1.07
1.04
1.09
1.14
1.06
1.07
1.10
1.13
1.09
1.08
1.08
1.03
1.04
1.07
1.03
0.99
1.05
1.07
1.09
1.05
1.04
1.03
1.01
1.04
1.05
1.03
1.08
1.12
1.06
1.06
1.09
1.12
1.09
1.08
1.06
1.03
1.05
1.08
1.04
1.00
1.04
1.04
1.08
1.04
1.04
1.02
1.01
1.04
1.04
1.02
1.09
1.13
1.06
1.07
1.10
1.13
1.09
1.07
1.03
1.03
1.07
1.04
1.00
1.04
1.05
1.08
1.04
1.03
1.01
0.99
1.04
1.07
1.04
1.09
1.14
1.06
1.07
1.11
1.14
1.08
1.08
1.07
1.02
1.03
1.07
1.04
1.00
1.05
1.05
1.07
1.02
1.04
1.03
1.02
1.05
1.06
1.04
1.08
1.13
1.06
1.06
1.10
1.12
1.08
1.07
1.06
1.01
1.03
1.06
1.04
1.00
1.05
1.06
1.09
1.04
1.05
1.03
1.01
1.04
1.06
1.03
1.07
1.12
1.05
1.06
1.10
1.12
1.08
1.08
1.08
1.03
1.02
1.07
1.04
1.01
1.05
1.06
1.09
1.04
1.05
1.03
1.01
1.04
1.05
1.03
1.07
1.12
1.05
1.07
1.11
1.13
1.08
1.07
1.07
1.02
1.02
1.05
1.04
1.04
1.05
1.09
1.03
1.03
1.02
1.00
1.05
1.08
1.05
1.08
1.13
1.07
1.07
1.11
1.14
1.09
1.08
1.09
1.03
1.03
1.06
1.05
0.99
1.04
1.05
1.09
1.05
1.04
1.02
1.01
1.04
1.06
1.03
1.08
1.14
1.06
1.07
1.10
1.12
1.08
1.05
1.05
1.02
1.04
1.07
1.05
1.00
1.04
1.05
1.09
1.04
1.04
1.03
1.01
1.05
1.06
1.04
1.07
1.12
1.06
1.08
1.11
1.13
1.09
1.07
1.08
1.02
1.03
1.07
1.05
1.00
1.04
1.05
1.09
1.04
1.05
1.02
1.01
1.05
1.05
1.04
1.09
1.15
1.07
1.07
1.10
1.13
1.09
1.07
1.07
1.02
1.02
1.06
1.04
0.99
1.03
1.04
1.08
1.04
1.03
1.01
1.05
1.06
1.03
1.06
1.13
1.06
1.06
1.09
1.12
1.09
1.08
1.08
1.01
1.03
1.05
1.05
1.01
1.05
1.07
1.09
1.05
1.05
1.03
1.01
1.04
1.05
1.04
1.08
1.14
1.08
1.07
1.11
1.12
1.08
1.05
1.07
1.03
1.03
1.07
1.05
1.00
1.03
1.05
1.08
1.03
1.04
1.02
1.01
1.03
1.06
1.02
1.06
1.14
1.07
1.07
1.10
1.13
1.09
1.07
1.07
1.03
1.02
1.06
1.05
1.00
1.04
1.05
1.08
1.04
1.04
1.03
0.99
1.02
1.05
1.04
1.08
1.15
1.07
1.06
1.10
1.13
1.09
1.07
1.08
1.03
1.03
1.04
1.03
0.99
1.05
1.06
1.09
1.05
1.05
1.03
1.02
1.04
1.06
1.08
1.14
1.07
1.06
1.09
1.13
1.09
1.07
1.07
1.03
1.03
1.07
1.05
1.00
1.04
1.05
1.08
1.04
1.04
1.02
1.01
1.04
1.06
1.02
1.06
1.12
1.06
1.06
1.10
1.13
1.09
1.08
1.09
1.03
1.03
1.06
1.04
0.99
1.03
1.05
1.09
1.04
1.06
1.04
1.00
1.03
1.05
1.06
1.08
1.15
1.07
1.06
1.10
1.13
1.09
1.07
1.08
1.02
1.01
1.05
1.05
1.00
1.04
1.05
1.09
1.03
1.03
1.02
1.01
1.05
1.07
1.04
1.07
1.14
1.07
1.06
1.09
1.13
1.09
1.07
1.06
1.02
1.01
1.08
1.07
1.02
1.04
1.06
1.09
1.05
1.05
1.04
1.01
1.03
1.06
1.03
1.06
1.13
1.07
1.06
1.13
1.08
1.07
1.07
1.02
1.03
1.06
1.05
1.00
1.03
1.05
1.08
1.04
1.06
1.04
1.01
1.03
1.06
1.02
1.06
1.13
1.08
1.07
1.10
1.14
1.10
1.08
1.08
1.03
1.02
1.07
1.07
1.01
1.03
1.04
1.07
1.04
1.05
1.02
1.00
1.03
1.06
1.05
1.07
1.14
1.08
1.07
1.09
1.12
1.09
1.07
1.08
1.02
1.01
1.06
1.05
1.01
1.04
1.04
1.07
1.04
1.04
1.04
1.01
1.03
1.06
1.04
1.06
1.14
1.08
1.06
1.09
1.13
1.09
1.07
1.07
1.02
1.01
1.07
1.07
1.01
1.04
1.06
1.09
1.05
1.05
1.03
1.01
1.03
1.06
1.04
1.06
1.13
1.06
1.05
1.09
1.13
1.09
1.08
1.08
1.02
1.07
1.06
1.01
1.03
1.05
1.08
1.05
1.05
1.03
1.01
1.04
1.06
1.04
1.04
1.13
1.08
1.07
1.10
1.14
1.09
1.07
1.08
1.03
1.03
1.06
1.05
0.99
1.02
1.05
1.08
1.03
1.03
1.02
1.01
1.05
1.07
1.05
1.07
1.14
1.08
1.05
1.10
1.13
1.10
1.08
1.08
1.02
1.01
1.05
1.05
1.00
1.03
1.05
1.09
1.05
1.05
1.03
1.01
1.04
1.06
1.04
1.05
1.13
1.07
1.04
1.09
1.13
1.09
1.06
1.08
1.04
1.03
1.06
1.06
1.00
1.03
1.06
1.08
1.05
1.04
1.03
1.01
1.01
1.05
1.03
1.05
1.13
1.07
1.06
1.11
1.13
1.09
1.08
1.08
1.04
1.02
1.06
1.05
1.00
1.05
1.09
1.05
1.04
1.03
1.02
1.04
1.08
1.05
1.07
1.14
1.09
1.06
1.10
1.14
1.10
1.08
1.07
1.04
1.01
1.06
1.06
1.01
1.02
1.05
1.07
1.05
1.04
1.05
1.03
1.03
1.07
1.05
1.06
1.14
1.08
1.05
1.09
1.13
1.09
1.07
1.07
1.02
1.01
1.06
1.07
1.01
1.03
1.05
1.08
1.05
1.05
1.03
1.01
1.03
1.06
1.04
1.05
1.12
1.07
1.05
1.11
1.14
1.10
1.08
1.08
1.04
1.02
1.05
1.06
1.00
1.03
1.05
1.07
1.04
1.04
1.03
1.01
1.02
1.06
1.02
1.04
1.13
1.09
1.06
1.09
1.13
1.09
1.08
1.08
1.04
1.02
1.06
1.06
1.00
1.02
1.05
1.08
1.05
1.05
1.02
1.01
1.06
1.05
1.05
1.14
1.09
1.06
1.09
1.13
1.09
1.08
1.08
1.03
1.01
1.03
1.04
0.98
1.02
1.04
1.08
1.04
1.05
1.03
1.02
1.03
1.07
1.05
1.05
1.13
1.09
1.07
1.09
1.14
1.10
1.07
1.08
1.05
1.01
1.05
1.06
1.02
1.04
1.06
1.09
1.06
1.04
1.03
1.01
1.02
1.06
1.04
1.04
1.13
1.09
1.02
1.07
1.12
1.10
1.09
1.09
1.05
1.02
1.06
1.07
1.01
1.02
1.05
1.07
1.05
1.04
1.03
1.01
1.02
1.05
1.03
1.06
1.15
1.10
1.06
1.09
1.12
1.09
1.07
1.07
1.03
1.01
1.05
1.07
1.00
1.01
1.05
1.09
1.07
1.06
1.04
1.02
1.03
1.07
1.04
1.13
1.09
1.06
1.09
1.13
1.10
1.08
1.08
1.04
1.01
1.05
1.06
0.98
1.01
1.06
1.09
1.07
1.05
1.03
1.01
1.03
1.06
1.04
1.04
1.13
1.09
1.06
1.08
1.13
1.10
1.08
1.08
1.04
1.02
1.06
1.07
1.02
1.02
1.07
1.07
1.05
1.04
1.02
1.01
1.01
1.06
1.04
1.05
1.15
1.08
1.03
1.07
1.11
1.11
1.08
1.08
1.04
1.02
1.05
1.07
1.01
1.02
1.06
1.08
1.04
1.04
1.03
1.02
1.04
1.08
1.05
1.05
1.14
1.09
1.06
1.09
1.13
1.10
1.07
1.07
1.03
1.01
1.05
1.07
1.01
1.02
1.05
1.07
1.06
1.03
1.02
1.00
1.03
1.07
1.05
1.04
1.13
1.09
1.05
1.08
1.09
1.05
1.07
1.05
1.03
1.06
1.08
1.02
1.03
1.07
1.08
1.06
1.06
1.04
1.02
1.02
1.06
1.04
1.05
1.13
1.09
1.05
1.08
1.11
1.09
1.08
1.09
1.05
1.02
1.05
1.08
1.01
1.02
1.06
1.07
1.06
1.05
1.05
1.00
1.00
1.04
1.06
1.06
1.14
1.10
1.05
1.08
1.12
1.09
1.07
1.08
1.04
1.01
1.05
1.07
1.01
1.02
1.06
1.07
1.06
1.05
1.03
1.02
1.03
1.07
1.05
1.04
1.13
1.09
1.05
1.09
1.11
1.09
1.06
1.06
1.02
1.01
1.04
1.07
1.00
1.00
1.04
1.08
1.07
1.05
1.04
1.01
1.02
1.06
1.04
1.04
1.12
1.09
1.05
1.09
1.11
1.09
1.06
1.08
1.06
1.07
1.08
1.02
1.02
1.06
1.07
1.07
1.05
1.04
1.02
1.03
1.05
1.03
1.03
1.12
1.11
1.07
1.09
1.12
1.09
1.06
1.06
1.04
1.00
1.04
1.06
1.01
1.01
1.07
1.08
1.08
1.06
1.05
1.01
1.02
1.06
1.07
1.06
1.12
1.08
1.04
1.07
1.11
1.09
1.07
1.08
1.04
1.01
1.05
1.07
1.01
1.00
1.03
1.06
1.08
1.06
1.05
1.02
1.03
1.06
1.05
1.04
1.12
1.10
1.05
1.08
1.12
1.10
1.08
1.08
1.04
1.00
1.04
1.08
1.03
1.03
1.06
1.07
1.07
1.05
1.04
1.01
1.02
1.06
1.05
1.04
1.12
1.10
1.05
1.07
1.11
1.10
1.08
1.08
1.04
1.01
1.05
1.07
1.01
1.01
1.05
1.05
1.04
1.04
1.02
1.04
1.06
1.05
1.03
1.12
1.09
1.06
1.10
1.13
1.11
1.08
1.08
1.05
1.02
1.05
1.08
1.02
1.02
1.04
1.07
1.05
1.05
1.06
1.04
1.03
1.07
1.06
1.05
1.12
1.09
1.04
1.07
1.11
1.09
1.08
1.07
1.05
1.01
1.04
1.07
1.01
1.00
1.05
1.06
1.07
1.05
1.05
1.03
1.02
1.06
1.05
1.05
1.12
1.10
1.05
1.07
1.11
1.10
1.09
1.08
1.06
1.02
1.05
1.07
1.01
1.01
1.05
1.06
1.06
1.05
1.04
1.02
1.02
1.06
1.05
1.04
1.10
1.09
1.04
1.09
1.12
1.09
1.06
1.05
1.02
0.98
1.02
1.06
1.01
0.99
1.05
1.06
1.06
1.03
1.03
1.05
1.10
1.09
1.07
1.14
1.11
1.06
1.10
1.14
1.13
1.10
1.10
1.08
1.05
1.07
1.09
1.04
1.01
1.07
1.07
1.07
1.04
1.04
1.01
1.00
1.04
1.03
1.03
1.10
1.09
1.04
1.06
1.10
1.09
1.06
1.06
1.04
1.00
1.03
1.06
1.02
1.00
1.05
1.06
1.06
1.04
1.04
1.02
1.02
1.06
1.05
1.05
1.12
1.09
1.05
1.09
1.14
1.12
1.08
1.07
1.05
1.02
1.05
1.07
1.02
1.00
1.05
1.06
1.06
1.05
1.04
1.02
0.99
1.04
1.04
1.04
1.12
1.11
1.06
1.09
1.12
1.11
1.08
1.08
1.06
1.02
1.05
1.07
1.03
1.02
1.05
1.04
1.05
1.04
1.04
1.03
1.02
1.06
1.05
1.04
1.10
1.04
1.08
1.11
1.10
1.08
1.07
1.04
0.99
1.01
1.04
1.01
1.01
1.05
1.05
1.06
1.04
1.03
1.02
1.02
1.07
1.07
1.06
1.12
1.12
1.08
1.10
1.12
1.12
1.09
1.10
1.07
1.03
1.06
1.09
1.04
1.02
1.07
1.06
1.07
1.04
1.03
1.00
0.98
1.03
1.02
1.01
1.09
1.10
1.04
1.06
1.09
1.07
1.06
1.04
1.02
1.01
1.05
1.09
1.04
1.02
1.07
1.09
1.10
1.08
1.08
1.06
1.05
1.09
1.07
1.06
1.12
1.12
1.06
1.09
1.13
1.12
1.08
1.06
1.04
1.01
1.03
1.06
1.01
0.98
1.03
1.03
1.06
1.03
1.02
1.00
0.99
1.04
1.03
1.02
1.10
1.11
1.06
1.08
1.12
1.09
1.08
1.05
1.02
1.03
1.07
1.02
1.02
1.06
1.07
1.08
1.05
1.04
1.01
1.00
1.05
1.05
1.04
1.11
1.10
1.04
1.09
1.12
1.12
1.09
1.09
1.07
1.02
1.05
1.06
1.01
0.99
1.02
1.03
1.06
1.03
1.02
1.01
1.01
1.07
1.05
1.04
1.14
1.15
1.09
1.10
1.14
1.13
1.09
1.08
1.07
1.04
1.06
1.09
1.04
1.01
1.06
1.06
1.07
1.05
1.04
1.02
1.01
1.04
1.04
1.02
1.08
1.09
1.03
1.06
1.09
1.09
1.05
1.05
1.04
1.00
1.03
1.05
1.01
0.99
1.04
1.06
1.07
1.06
1.07
1.05
1.03
1.06
1.06
1.04
1.11
1.12
1.06
1.08
1.12
1.11
1.07
1.06
1.06
1.02
1.09
1.03
1.00
1.05
1.06
1.07
1.02
1.01
1.00
1.00
1.05
1.05
1.02
1.08
1.09
1.05
1.10
1.14
1.15
1.11
1.10
1.08
1.04
1.04
1.08
1.04
1.03
1.07
1.08
1.09
1.07
1.06
1.03
1.01
1.05
1.04
1.02
1.09
1.11
1.06
1.07
1.10
1.09
1.06
1.05
1.05
0.99
1.00
1.04
1.01
0.99
1.03
1.04
1.09
1.06
1.07
1.04
1.03
1.07
1.07
1.04
1.10
1.11
1.05
1.07
1.11
1.12
1.09
1.08
1.07
1.02
1.04
1.07
1.02
1.00
1.05
1.07
1.09
1.05
1.03
1.01
0.99
1.04
1.04
1.02
1.09
1.09
1.02
1.02
1.07
1.09
1.09
1.09
1.08
1.03
1.05
1.08
1.04
1.02
1.07
1.10
1.06
1.05
1.03
1.01
1.06
1.05
1.05
1.10
1.12
1.08
1.09
1.12
1.12
1.09
1.07
1.06
1.01
1.03
1.06
1.03
0.98
1.02
1.02
1.05
1.02
1.02
1.01
1.00
1.05
1.05
1.03
1.10
1.14
1.06
1.05
1.07
1.07
1.03
1.04
1.05
1.01
1.03
1.05
1.01
1.00
1.08
1.08
1.11
1.09
1.07
1.04
1.03
1.08
1.08
1.06
1.13
1.15
1.09
1.11
1.14
1.15
1.10
1.09
1.08
1.02
1.01
1.05
1.02
1.01
1.06
1.05
1.07
1.03
1.02
0.99
0.98
1.00
1.00
0.99
1.07
1.09
1.03
1.06
1.10
1.14
1.11
1.09
1.09
1.02
1.02
1.05
1.03
1.00
1.05
1.06
1.09
1.06
1.07
1.04
1.03
1.03
0.99
1.05
1.07
1.04
1.05
1.08
1.09
1.07
1.08
1.09
1.05
1.06
1.10
1.08
1.04
1.08
1.09
1.10
1.07
1.08
1.05
1.03
1.07
1.07
1.03
1.09
1.11
1.06
1.07
1.13
1.12
1.04
1.00
0.98
0.92
0.96
1.02
1.02
1.02
1.08
1.09
1.13
1.09
1.10
1.08
1.05
1.06
1.06
1.05
1.12
1.16
1.09
1.10
1.16
1.18
1.13
1.10
1.09
1.01
1.01
1.03
1.01
0.95
0.98
0.98
1.01
0.98
0.97
0.95
0.93
0.97
0.98
0.98
1.07
1.11
1.06
1.09
1.15
1.19
1.16
1.15
1.13
1.07
1.06
1.08
1.06
1.02
1.06
1.02
1.02
0.98
1.01
1.01
1.02
1.09
1.10
1.09
1.12
1.03
1.01
0.99
0.98
0.95
0.97
1.02
1.01
1.04
1.08
1.05
1.01
1.03
1.04
1.13
1.17
1.22
1.21
1.18
1.17
1.09
0.94
0.93
0.97
0.93
0.98
1.06
1.12
1.13
1.18
1.19
1.17
1.18
1.18
1.08
1.00
0.98
0.96
0.99
0.99
1.06
1.11
1.15
1.21
1.20
1.15
1.15
1.17
1.09
1.09
1.11
1.10
1.06
1.02
1.04
0.99
0.98
1.00
0.96
0.92
0.95
0.95
0.97
0.93
0.94
0.92
0.91
0.94
0.97
0.99
1.06
1.09
1.03
1.05
1.12
1.15
1.13
1.13
1.13
1.06
1.07
1.08
1.01
0.93
0.96
0.97
1.06
1.08
1.10
1.08
1.00
1.00
1.01
1.01
1.09
1.21
1.13
0.99
0.95
0.91
0.98
1.16
1.26
1.34
1.37
1.24
1.08
1.02
1.00
1.07
1.00
0.92
0.85
0.78
0.88
1.03
1.03
1.09
1.14
1.09
1.11
1.19
1.19
1.15
1.12
1.14
1.13
1.13
1.15
1.09
1.04
1.10
1.13
1.17
1.12
1.13
1.12
1.11
1.14
1.14
1.10
1.13
1.16
1.06
1.02
0.94
0.90
0.88
0.91
0.94
0.89
0.82
0.78
0.77
0.82
0.95
1.02
1.09
1.09
1.14
1.16
1.13
1.09
1.07
1.07
1.16
1.23
1.14
1.09
1.06
1.09
1.02
1.01
1.02
1.01
1.03
1.12
1.20
1.21
1.30
1.23
1.16
0.99
0.90
0.86
0.86
0.95
1.07
1.10
1.17
1.19
1.10
1.08
1.12
1.14
1.05
1.04
1.08
1.06
1.00
0.73
0.64
0.77
0.93
1.12
1.19
1.20
1.17
1.07
1.09
1.14
1.15
1.14
1.15
1.09
1.07
1.11
1.11
1.09
1.09
1.13
1.13
1.14
1.19
1.15
1.06
1.08
1.15
1.21
1.09
0.96
0.87
0.84
0.92
0.96
0.86
0.87
1.00
0.98
1.07
1.18
1.23
1.14
1.05
1.00
0.95
0.98
1.03
1.02
0.98
1.04
1.01
1.04
1.04
1.09
1.07
1.09
1.13
1.17
1.03
0.87
0.93
0.97
1.16
1.28
1.23
1.10
1.02
1.11
1.14
1.15
1.18
1.12
1.10
1.15
1.11
1.09
0.99
0.97
0.95
0.91
0.96
1.05
1.07
1.09
1.12
1.02
0.98
1.04
1.11
1.09
1.08
1.13
1.11
1.12
1.14
1.05
0.97
0.97
0.87
0.91
0.97
1.01
1.02
1.09
1.18
1.14
1.14
1.22
1.14
1.09
1.06
1.05
1.02
1.00
0.97
0.94
0.95
0.96
0.96
0.98
1.06
1.06
1.06
1.06
1.16
1.24
1.26
1.25
1.15
1.01
0.96
1.05
1.07
1.11
1.14
1.12
1.07
1.08
1.07
1.02
1.02
1.01
0.93
0.90
0.95
1.05
1.21
1.40
1.46
1.27
1.03
0.93
0.93
0.89
0.86
0.89
0.87
0.94
1.09
1.19
1.20
1.20
1.08
0.94
0.85
0.87
0.88
0.82
0.83
0.97
1.15
1.22
1.22
1.12
0.99
0.99
1.10
1.13
1.15
1.15
1.08
1.12
1.11
1.09
1.09
1.18
1.27
1.30
1.26
1.20
1.06
0.93
0.93
0.90
0.89
0.87
0.92
0.91
0.93
0.99
0.98
1.09
1.28
1.22
1.23
1.17
1.12
1.07
1.06
1.03
0.94
0.88
0.98
1.01
1.02
1.14
1.16
1.12
1.08
1.09
1.07
1.00
0.94
0.88
0.87
0.95
1.10
1.09
1.10
1.15
1.18
1.17
1.18
1.11
0.99
0.93
0.94
0.93
0.93
1.03
1.08
1.12
1.15
1.19
1.10
0.97
0.93
0.95
1.00
1.11
1.30
1.32
1.29
1.20
1.06
0.91
0.88
0.89
0.88
0.94
1.13
1.22
1.13
1.16
1.23
1.28
1.15
1.02
0.97
0.91
0.90
0.95
0.92
0.99
1.11
1.09
1.19
1.30
1.35
1.21
1.08
1.01
0.94
0.88
0.91
0.93
0.88
0.90
1.01
0.98
0.62
0.71
1.01
1.24
1.25
1.19
1.12
1.16
1.13
1.01
1.04
1.08
1.05
1.06
1.09
1.01
1.03
1.15
1.18
1.13
1.15
1.13
1.16
1.10
1.09
1.07
1.04
1.06
1.02
0.94
0.95
1.02
0.98
0.99
1.09
1.18
1.17
1.18
1.18
1.11
1.11
1.18
1.10
0.96
0.98
1.01
1.08
1.07
1.00
0.93
0.87
0.89
1.00
1.05
1.19
1.33
1.20
1.06
1.03
1.17
1.13
1.00
0.87
0.79
0.85
1.01
1.08
1.05
1.09
1.20
1.28
1.17
1.02
0.97
0.92
0.92
0.99
1.01
1.09
1.19
1.06
1.00
1.03
1.06
1.09
1.12
1.10
1.02
0.99
1.06
1.09
1.01
0.98
1.00
1.05
1.07
1.12
1.07
1.01
1.04
1.10
1.05
1.03
1.10
0.93
0.83
0.88
1.06
1.09
1.25
1.20
1.14
1.11
1.01
0.97
1.04
1.07
1.04
0.92
0.94
1.04
1.11
1.20
1.28
1.20
1.20
1.26
1.13
1.06
1.10
1.15
1.06
0.99
1.01
0.94
0.87
0.92
1.00
1.02
1.04
1.04
1.07
1.02
0.99
1.00
0.98
1.00
1.07
1.02
0.94
1.00
1.01
1.09
1.23
1.28
1.20
1.12
1.09
1.02
1.03
1.13
1.10
0.96
0.85
0.92
1.08
1.09
1.06
1.03
1.05
1.15
1.20
1.15
1.11
1.11
0.99
0.91
0.95
1.12
1.24
1.27
1.31
1.17
0.94
0.72
0.78
0.83
0.96
1.03
1.08
1.09
1.08
1.05
1.03
1.04
1.05
0.99
0.95
1.03
1.03
1.06
1.13
1.20
1.18
1.18
1.16
1.08
1.03
0.98
0.96
1.08
1.16
1.20
1.21
1.16
1.03
0.93
0.89
0.91
0.91
1.00
1.11
1.07
1.06
1.10
1.13
1.09
1.11
1.08
1.11
1.17
1.22
1.10
0.99
0.99
1.07
1.13
1.11
1.08
1.03
0.99
1.01
1.09
1.01
0.95
1.04
1.04
1.02
1.03
1.07
1.07
1.06
1.02
0.98
0.97
0.99
1.00
0.95
1.03
1.08
1.16
1.22
1.28
1.26
1.07
0.94
0.89
0.77
0.85
1.13
1.09
1.09
1.19
1.24
1.16
1.09
1.01
0.93
1.05
1.24
1.28
1.17
0.99
0.89
0.85
0.78
0.80
0.90
1.12
1.33
1.44
1.25
1.04
1.03
0.95
0.95
1.02
1.08
1.02
1.02
1.03
1.00
0.98
1.03
1.05
0.94
0.94
0.96
0.96
1.02
1.06
1.08
1.10
1.18
1.18
1.17
1.23
1.18
1.08
1.01
1.09
1.10
1.13
1.14
1.09
1.05
1.08
1.11
1.07
1.05
1.09
1.13
1.12
1.02
0.97
0.96
0.96
0.98
0.96
0.94
1.00
1.01
1.05
1.12
1.18
1.13
1.13
1.16
1.15
1.14
1.12
1.08
0.91
0.89
0.94
1.02
1.01
1.01
1.02
1.02
1.04
1.08
1.07
1.07
1.14
1.08
1.04
1.07
1.09
1.07
1.08
1.08
1.02
0.98
1.03
1.01
0.97
1.01
1.09
1.11
1.12
1.10
1.07
1.03
1.04
1.07
1.04
1.04
1.12
1.09
1.06
1.10
1.14
1.13
1.10
1.11
1.07
1.02
1.02
1.02
0.93
0.97
1.06
1.13
1.13
1.12
1.13
1.08
1.00
0.96
0.96
1.01
1.01
1.03
1.09
1.15
1.15
1.13
1.13
1.09
1.05
1.09
1.09
1.02
0.99
1.02
1.07
1.06
1.05
1.04
1.02
1.03
1.09
1.05
1.02
1.10
1.08
1.06
1.10
1.13
1.11
1.06
1.06
1.02
1.00
1.02
1.04
1.00
1.03
1.05
1.06
1.06
1.06
1.04
1.00
1.01
1.08
1.08
1.08
1.14
1.11
1.07
1.09
1.13
1.10
1.08
1.08
1.04
1.00
1.03
1.04
0.99
1.00
1.04
1.07
1.08
1.10
1.09
1.06
1.03
1.05
1.02
1.02
1.09
1.05
1.02
1.06
1.14
1.14
1.10
1.10
1.04
0.99
1.03
1.07
1.02
1.03
1.06
1.06
1.02
0.99
1.02
0.98
0.98
1.02
1.05
1.04
1.15
1.12
1.11
1.14
1.11
1.09
1.06
1.02
0.99
1.03
1.05
1.01
1.02
1.05
1.07
1.07
1.03
1.02
1.00
1.03
1.07
1.04
1.04
1.12
1.09
1.05
1.09
1.12
1.11
1.08
1.08
1.05
1.02
1.06
1.09
1.03
1.03
1.07
1.06
1.05
1.04
1.04
1.03
1.03
1.07
1.04
1.04
1.12
1.10
1.04
1.08
1.11
1.10
1.07
1.08
1.03
1.00
1.04
1.09
1.03
1.03
1.05
1.07
1.07
1.05
1.04
1.02
1.02
1.06
1.05
1.05
1.13
1.10
1.05
1.08
1.13
1.10
1.08
1.07
1.04
1.01
1.06
1.08
1.02
1.01
1.05
1.06
1.06
1.04
1.03
1.01
1.00
1.06
1.04
1.05
1.13
1.10
1.06
1.09
1.12
1.10
1.08
1.05
1.01
1.05
1.08
1.01
1.01
1.06
1.07
1.07
1.05
1.03
1.03
1.02
1.07
1.05
1.05
1.13
1.10
1.05
1.08
1.12
1.11
1.07
1.05
1.04
1.01
1.05
1.08
1.02
1.02
1.05
1.08
1.07
1.05
1.05
1.02
1.01
1.05
1.04
1.04
1.12
1.10
1.06
1.08
1.13
1.09
1.06
1.08
1.05
1.01
1.05
1.08
1.03
1.02
1.07
1.07
1.06
1.04
1.03
1.01
1.01
1.06
1.05
1.05
1.12
1.10
1.04
1.08
1.12
1.11
1.08
1.08
1.06
1.03
1.05
1.07
1.02
1.01
1.05
1.07
1.06
1.04
1.03
1.00
1.01
1.07
1.05
1.04
1.11
1.10
1.04
1.09
1.12
1.11
1.08
1.08
1.06
1.02
1.04
1.07
1.01
1.06
1.06
1.06
1.04
1.04
1.02
1.02
1.07
1.06
1.05
1.13
1.11
1.06
1.08
1.12
1.10
1.07
1.06
1.04
1.00
1.05
1.08
1.03
1.02
1.06
1.07
1.07
1.05
1.04
1.01
1.01
1.06
1.05
1.04
1.13
1.12
1.05
1.07
1.10
1.09
1.05
1.07
1.05
1.01
1.04
1.08
1.03
1.03
1.06
1.07
1.07
1.04
1.03
1.01
0.99
1.04
1.03
1.03
1.11
1.10
1.06
1.09
1.12
1.11
1.08
1.08
1.06
1.02
1.04
1.07
1.03
1.01
1.06
1.04
1.05
1.04
1.05
1.03
1.03
1.07
1.06
1.04
1.11
1.11
1.05
1.08
1.11
1.10
1.08
1.08
1.06
1.01
1.04
1.08
1.02
0.99
1.04
1.05
1.06
1.04
1.01
1.01
1.06
1.05
1.04
1.11
1.11
1.04
1.07
1.10
1.09
1.07
1.06
1.06
1.03
1.05
1.08
1.03
1.02
1.06
1.06
1.08
1.05
1.05
1.02
1.02
1.05
1.06
1.04
1.12
1.12
1.06
1.07
1.10
1.10
1.09
1.09
1.07
1.03
1.05
1.07
1.03
1.00
1.05
1.06
1.06
1.04
1.04
1.02
0.99
1.05
1.05
1.04
1.12
1.12
1.06
1.08
1.11
1.10
1.07
1.07
1.05
1.00
1.02
1.07
1.02
1.01
1.05
1.05
1.07
1.05
1.04
1.02
0.99
1.04
1.04
1.04
1.12
1.12
1.06
1.09
1.12
1.12
1.08
1.07
1.05
1.01
1.05
1.08
1.03
1.00
1.06
1.05
1.08
1.06
1.05
1.03
1.02
1.06
1.03
1.10
1.10
1.04
1.05
1.09
1.10
1.07
1.07
1.07
1.01
1.04
1.07
1.04
1.01
1.06
1.06
1.08
1.04
1.04
1.03
1.01
1.06
1.05
1.04
1.09
1.10
1.04
1.07
1.13
1.14
1.09
1.09
1.07
1.02
1.04
1.06
1.02
1.00
1.05
1.05
1.07
1.05
1.04
1.01
1.01
1.05
1.06
1.05
1.11
1.12
1.05
1.07
1.12
1.12
1.08
1.08
1.06
1.02
1.04
1.07
1.02
0.99
1.04
1.03
1.07
1.04
1.03
1.02
1.02
1.06
1.06
1.04
1.10
1.11
1.04
1.07
1.11
1.12
1.08
1.07
1.05
1.02
1.06
1.09
1.03
1.01
1.04
1.04
1.06
1.03
1.04
1.02
1.01
1.06
1.06
1.04
1.11
1.11
1.06
1.12
1.12
1.08
1.08
1.06
1.01
1.03
1.07
1.03
1.00
1.05
1.05
1.06
1.04
1.05
1.02
1.01
1.06
1.07
1.04
1.09
1.09
1.05
1.08
1.11
1.11
1.09
1.07
1.07
1.01
1.03
1.07
1.03
1.01
1.06
1.07
1.07
1.03
1.02
1.02
1.01
1.05
1.06
1.04
1.10
1.12
1.05
1.08
1.12
1.12
1.08
1.07
1.07
1.01
1.03
1.07
1.01
0.99
1.04
1.06
1.09
1.05
1.05
1.03
1.01
1.04
1.04
1.03
1.09
1.12
1.06
1.07
1.09
1.11
1.09
1.09
1.08
1.02
1.04
1.08
1.05
1.01
1.05
1.05
1.08
1.05
1.05
1.02
1.01
1.05
1.06
1.04
1.09
1.12
1.03
1.05
1.09
1.12
1.09
1.08
1.02
1.03
1.07
1.03
0.99
1.04
1.05
1.07
1.04
1.03
1.00
1.01
1.06
1.07
1.04
1.09
1.11
1.04
1.07
1.10
1.12
1.08
1.08
1.07
1.03
1.04
1.08
1.03
1.00
1.03
1.05
1.08
1.04
1.04
1.04
1.02
1.05
1.05
1.03
1.10
1.13
1.05
1.07
1.10
1.11
1.09
1.07
1.07
1.01
1.03
1.07
1.04
1.00
1.04
1.05
1.08
1.05
1.04
1.02
1.01
1.06
1.07
1.04
1.10
1.11
1.04
1.06
1.10
1.12
1.08
1.07
1.06
1.01
1.02
1.07
1.04
1.01
1.05
1.05
1.09
1.05
1.05
1.03
1.02
1.06
1.06
1.05
1.09
1.12
1.05
1.07
1.12
1.13
1.08
1.07
1.06
1.01
1.04
1.07
1.04
1.05
1.05
1.08
1.03
1.04
1.02
1.00
1.06
1.07
1.04
1.09
1.12
1.05
1.06
1.10
1.12
1.09
1.08
1.08
1.01
1.03
1.07
1.05
1.00
1.06
1.06
1.09
1.05
1.05
1.02
1.00
1.05
1.05
1.03
1.09
1.13
1.05
1.06
1.10
1.12
1.07
1.06
1.07
1.01
1.04
1.08
1.04
1.00
1.04
1.04
1.07
1.04
1.04
1.02
1.01
1.05
1.06
1.03
1.09
1.14
1.07
1.07
1.12
1.13
1.09
1.08
1.07
1.02
1.03
1.06
1.03
0.99
1.04
1.04
1.06
1.03
1.03
1.01
1.00
1.04
1.05
1.03
1.09
1.14
1.06
1.07
1.10
1.12
1.08
1.07
1.06
1.02
1.03
1.07
1.05
1.02
1.05
1.04
1.08
1.05
1.04
1.02
1.05
1.06
1.03
1.08
1.12
1.05
1.06
1.10
1.12
1.09
1.08
1.07
1.01
1.02
1.07
1.06
1.02
1.05
1.06
1.08
1.05
1.05
1.02
1.01
1.04
1.06
1.04
1.09
1.12
1.05
1.06
1.10
1.13
1.09
1.08
1.08
1.02
1.03
1.06
1.04
1.00
1.05
1.05
1.09
1.05
1.05
1.03
1.01
1.06
1.05
1.02
1.07
1.13
1.06
1.06
1.10
1.12
1.09
1.08
1.07
1.02
1.02
1.06
1.04
1.00
1.04
1.05
1.07
1.03
1.03
1.03
1.01
1.05
1.06
1.04
1.08
1.12
1.06
1.05
1.09
1.12
1.08
1.07
1.07
1.02
1.02
1.07
1.05
1.01
1.05
1.05
1.08
1.05
1.05
1.03
1.01
1.04
1.04
1.08
1.13
1.06
1.06
1.09
1.11
1.07
1.08
1.09
1.03
1.03
1.06
1.03
0.99
1.05
1.06
1.09
1.05
1.05
1.03
1.02
1.05
1.07
1.04
1.09
1.15
1.07
1.05
1.10
1.13
1.09
1.08
1.08
1.02
1.03
1.07
1.04
1.00
1.04
1.04
1.08
1.04
1.05
1.02
0.99
1.03
1.05
1.04
1.09
1.14
1.07
1.06
1.10
1.13
1.09
1.07
1.08
1.02
1.03
1.07
1.04
1.00
1.03
1.04
1.07
1.03
1.06
1.04
1.01
1.04
1.05
1.03
1.07
1.13
1.06
1.06
1.09
1.13
1.09
1.08
1.08
1.02
1.02
1.05
1.05
1.01
1.04
1.05
1.08
1.04
1.04
1.02
1.01
1.04
1.06
1.04
1.08
1.13
1.06
1.06
1.14
1.08
1.06
1.07
1.03
1.04
1.07
1.05
1.00
1.04
1.05
1.08
1.04
1.05
1.03
1.01
1.04
1.06
1.05
1.06
1.14
1.07
1.06
1.10
1.12
1.08
1.08
1.08
1.03
1.03
1.07
1.03
0.99
1.03
1.05
1.08
1.04
1.06
1.04
1.01
1.03
1.05
1.02
1.07
1.14
1.07
1.07
1.10
1.14
1.09
1.07
1.08
1.03
1.03
1.07
1.06
1.00
1.02
1.05
1.09
1.06
1.06
1.02
1.00
1.03
1.05
1.02
1.06
1.12
1.05
1.05
1.10
1.13
1.08
1.07
1.07
1.03
1.04
1.07
1.06
1.00
1.05
1.06
1.09
1.06
1.06
1.03
1.01
1.04
1.06
1.05
1.08
1.14
1.08
1.07
1.10
1.11
1.08
1.06
1.08
1.02
1.05
1.05
1.01
1.03
1.05
1.08
1.05
1.05
1.03
1.01
1.02
1.05
1.03
1.08
1.14
1.08
1.06
1.10
1.13
1.09
1.07
1.08
1.02
1.03
1.07
1.06
1.01
1.04
1.04
1.07
1.03
1.04
1.04
1.02
1.04
1.08
1.05
1.07
1.14
1.07
1.06
1.10
1.13
1.09
1.08
1.08
1.04
1.03
1.06
1.06
1.01
1.02
1.06
1.09
1.05
1.05
1.03
1.01
1.03
1.05
1.03
1.06
1.13
1.07
1.05
1.08
1.11
1.08
1.06
1.07
1.03
1.02
1.07
1.07
1.01
1.04
1.05
1.09
1.05
1.05
1.03
1.00
1.03
1.05
1.02
1.05
1.13
1.09
1.07
1.11
1.13
1.09
1.07
1.08
1.02
1.01
1.05
1.05
1.00
1.05
1.08
1.05
1.05
1.03
1.02
1.03
1.07
1.04
1.05
1.13
1.07
1.06
1.11
1.14
1.10
1.09
1.08
1.03
1.02
1.07
1.05
1.01
1.02
1.05
1.06
1.04
1.04
1.05
1.02
1.04
1.06
1.05
1.07
1.14
1.08
1.05
1.09
1.12
1.09
1.08
1.08
1.01
1.01
1.06
1.06
1.01
1.03
1.05
1.09
1.05
1.05
1.04
1.02
1.04
1.07
1.04
1.06
1.11
1.06
1.05
1.10
1.14
1.11
1.09
1.09
1.04
1.03
1.07
1.07
1.01
1.03
1.06
1.08
1.05
1.04
1.02
1.00
1.01
1.05
1.03
1.06
1.13
1.06
1.05
1.09
1.13
1.09
1.08
1.08
1.03
1.02
1.06
1.05
0.99
1.01
1.04
1.07
1.05
1.06
1.00
1.02
1.05
1.05
1.07
1.14
1.08
1.06
1.10
1.13
1.09
1.07
1.08
1.02
1.00
1.02
1.05
0.99
1.04
1.07
1.10
1.07
1.07
1.06
1.04
1.05
1.09
1.07
1.09
1.15
1.09
1.07
1.10
1.13
1.09
1.07
1.08
1.04
1.02
1.06
1.07
1.02
1.04
1.04
1.07
1.03
1.03
1.02
1.00
1.01
1.05
1.01
1.03
1.12
1.08
1.06
1.09
1.13
1.09
1.08
1.09
1.04
1.02
1.06
1.06
1.01
1.03
1.05
1.07
1.05
1.05
1.03
1.02
1.03
1.06
1.05
1.06
1.12
1.07
1.04
1.08
1.14
1.11
1.08
1.09
1.04
1.02
1.06
1.06
1.00
1.02
1.03
1.07
1.04
1.05
1.04
1.01
1.02
1.06
1.05
1.13
1.07
1.05
1.09
1.12
1.09
1.09
1.09
1.02
1.03
1.07
1.07
1.03
1.05
1.07
1.09
1.07
1.07
1.05
1.02
1.03
1.07
1.04
1.04
1.12
1.08
1.06
1.09
1.13
1.10
1.07
1.07
1.03
1.03
1.07
1.07
1.01
1.02
1.04
1.07
1.05
1.05
1.03
1.01
1.03
1.07
1.05
1.06
1.13
1.08
1.06
1.10
1.14
1.10
1.08
1.08
1.04
1.02
1.05
1.06
1.00
1.02
1.05
1.08
1.06
1.03
1.01
0.99
1.02
1.08
1.06
1.06
1.14
1.09
1.06
1.09
1.13
1.10
1.08
1.08
1.04
1.02
1.05
1.06
1.01
1.02
1.05
1.07
1.04
1.05
1.05
1.02
1.03
1.07
1.05
1.05
1.13
1.09
1.05
1.09
1.09
1.08
1.06
1.03
1.01
1.07
1.07
1.02
1.02
1.05
1.08
1.06
1.05
1.04
1.02
1.03
1.06
1.04
1.05
1.14
1.08
1.05
1.08
1.10
1.08
1.07
1.08
1.04
1.03
1.07
1.07
1.01
1.02
1.05
1.07
1.05
1.05
1.03
1.01
1.03
1.05
1.05
1.05
1.13
1.09
1.06
1.09
1.13
1.10
1.07
1.08
1.03
1.00
1.04
1.06
1.01
1.02
1.05
1.07
1.04
1.04
1.03
1.02
1.02
1.06
1.04
1.05
1.13
1.09
1.06
1.09
1.13
1.11
1.08
1.09
1.05
1.02
1.06
1.06
1.00
1.01
1.06
1.09
1.06
1.05
1.04
1.01
1.02
1.07
1.04
1.04
1.13
1.09
1.05
1.09
1.12
1.08
1.06
1.06
1.04
1.06
1.07
1.01
1.02
1.05
1.08
1.05
1.05
1.04
1.02
1.03
1.06
1.04
1.06
1.12
1.08
1.04
1.08
1.13
1.11
1.08
1.08
1.05
1.02
1.05
1.07
1.02
1.01
1.05
1.07
1.06
1.05
1.04
1.01
1.02
1.06
1.05
1.06
1.14
1.09
1.05
1.08
1.11
1.08
1.05
1.05
1.03
1.00
1.04
1.05
0.99
1.02
1.07
1.09
1.08
1.07
1.06
1.04
1.04
1.08
1.06
1.06
1.14
1.10
1.06
1.09
1.12
1.11
1.09
1.09
1.05
1.02
1.04
1.08
1.01
1.01
1.04
1.04
1.03
1.03
1.02
0.99
1.00
1.04
1.03
1.04
1.12
1.08
1.04
1.08
1.11
1.09
1.06
1.08
1.05
1.03
1.05
1.07
1.03
1.03
1.07
1.05
1.05
1.04
1.01
1.01
1.05
1.06
1.06
1.14
1.10
1.07
1.10
1.14
1.10
1.07
1.07
1.04
1.02
1.05
1.07
1.02
1.02
1.06
1.08
1.07
1.04
1.02
1.00
1.00
1.06
1.05
1.04
1.12
1.09
1.04
1.08
1.12
1.10
1.08
1.09
1.05
1.00
1.04
1.06
1.03
1.03
1.06
1.07
1.06
1.05
1.04
1.01
1.02
1.07
1.04
1.04
1.12
1.09
1.05
1.09
1.12
1.10
1.08
1.06
1.03
1.00
1.06
1.08
1.02
1.02
1.05
1.07
1.07
1.05
1.04
1.03
1.02
1.06
1.05
1.05
1.12
1.09
1.05
1.09
1.13
1.11
1.08
1.08
1.05
1.01
1.04
1.07
1.02
1.02
1.05
1.07
1.05
1.03
1.01
1.01
1.06
1.06
1.04
1.11
1.09
1.04
1.08
1.13
1.12
1.08
1.07
1.06
1.03
1.05
1.09
1.03
1.02
1.06
1.09
1.07
1.05
1.04
1.03
1.04
1.07
1.05
1.04
1.13
1.09
1.05
1.09
1.13
1.10
1.08
1.07
1.03
1.00
1.04
1.07
1.02
1.01
1.06
1.06
1.06
1.05
1.03
1.01
1.02
1.05
1.05
1.05
1.13
1.11
1.06
1.08
1.11
1.11
1.07
1.09
1.07
1.03
1.05
1.07
1.01
1.01
1.05
1.06
1.06
1.05
1.04
1.03
1.02
1.06
1.06
1.04
1.11
1.09
1.06
1.09
1.13
1.11
1.08
1.08
1.05
1.01
1.04
1.06
1.00
1.00
1.04
1.04
1.04
1.03
1.04
1.02
1.02
1.06
1.05
1.04
1.10
1.05
1.09
1.13
1.12
1.09
1.09
1.06
1.03
1.07
1.09
1.03
1.02
1.07
1.07
1.08
1.06
1.05
1.02
1.01
1.06
1.05
1.05
1.11
1.10
1.05
1.08
1.11
1.09
1.07
1.07
1.05
1.02
1.05
1.07
1.03
1.01
1.06
1.07
1.07
1.05
1.04
1.01
0.98
1.03
1.03
1.02
1.11
1.09
1.04
1.08
1.12
1.12
1.09
1.08
1.06
1.01
1.03
1.06
1.02
1.01
1.06
1.07
1.08
1.05
1.04
1.02
1.02
1.08
1.06
1.05
1.12
1.11
1.06
1.08
1.12
1.11
1.08
1.07
1.05
1.01
1.04
1.06
1.02
1.01
1.05
1.04
1.06
1.04
1.05
1.03
1.03
1.07
1.05
1.05
1.12
1.10
1.05
1.08
1.12
1.08
1.07
1.04
1.01
1.04
1.08
1.03
1.02
1.06
1.07
1.07
1.05
1.04
1.02
1.02
1.06
1.06
1.04
1.12
1.11
1.06
1.08
1.12
1.11
1.07
1.06
1.05
1.02
1.06
1.09
1.03
1.02
1.05
1.05
1.07
1.06
1.04
1.02
1.02
1.06
1.05
1.02
1.10
1.10
1.06
1.09
1.12
1.11
1.08
1.08
1.06
1.02
1.04
1.07
1.02
1.01
1.05
1.06
1.08
1.04
1.04
1.02
1.01
1.06
1.04
1.02
1.09
1.10
1.05
1.08
1.12
1.12
1.09
1.08
1.06
1.02
1.04
1.08
1.03
1.01
1.07
1.07
1.06
1.03
1.05
1.03
1.02
1.06
1.06
1.04
1.11
1.10
1.05
1.08
1.11
1.11
1.07
1.05
1.04
1.00
1.08
1.04
1.02
1.06
1.05
1.08
1.05
1.04
1.02
1.02
1.06
1.06
1.04
1.11
1.11
1.06
1.08
1.11
1.11
1.07
1.07
1.07
1.03
1.05
1.08
1.02
0.99
1.04
1.06
1.07
1.05
1.05
1.02
1.00
1.05
1.04
1.05
1.12
1.10
1.04
1.07
1.11
1.10
1.06
1.05
1.05
1.01
1.04
1.07
1.03
1.01
1.05
1.06
1.08
1.02
1.04
1.03
1.04
1.08
1.07
1.05
1.12
1.13
1.07
1.09
1.13
1.12
1.08
1.07
1.06
1.01
1.05
1.06
1.02
1.01
1.05
1.04
1.04
1.01
1.01
1.01
1.00
1.04
1.03
1.03
1.10
1.11
1.06
1.08
1.12
1.13
1.08
1.07
1.08
1.03
1.05
1.08
1.03
1.01
1.06
1.07
1.05
1.04
1.00
0.99
1.04
1.05
1.04
1.09
1.10
1.05
1.06
1.11
1.11
1.07
1.07
1.06
1.01
1.03
1.06
1.02
1.01
1.05
1.05
1.08
1.05
1.05
1.03
1.02
1.05
1.06
1.05
1.13
1.14
1.07
1.09
1.11
1.13
1.08
1.07
1.07
1.02
1.05
1.08
1.04
1.00
1.04
1.06
1.08
1.04
1.05
1.02
1.00
1.04
1.04
1.02
1.09
1.12
1.06
1.07
1.10
1.10
1.05
1.04
1.04
1.02
1.04
1.08
1.04
1.02
1.06
1.06
1.08
1.05
1.06
1.04
1.02
1.07
1.06
1.04
1.10
1.12
1.05
1.07
1.13
1.12
1.09
1.07
1.06
1.01
1.02
1.05
1.02
0.99
1.03
1.03
1.06
1.04
1.03
1.02
1.06
1.07
1.04
1.09
1.10
1.05
1.09
1.13
1.13
1.10
1.08
1.07
1.02
1.04
1.07
1.04
1.01
1.03
1.05
1.08
1.05
1.04
1.01
0.97
1.02
1.03
1.02
1.08
1.11
1.05
1.07
1.10
1.11
1.09
1.06
1.07
1.03
1.05
1.09
1.05
1.01
1.05
1.06
1.09
1.08
1.08
1.05
1.03
1.06
1.06
1.04
1.10
1.12
1.05
1.06
1.10
1.11
1.05
1.05
1.05
1.01
1.03
1.07
1.03
1.00
1.05
1.04
1.07
1.03
1.03
1.02
1.00
1.04
1.02
1.01
1.08
1.11
1.07
1.09
1.12
1.13
1.11
1.10
1.11
1.07
1.07
1.09
1.03
0.99
1.03
1.05
1.09
1.06
1.06
1.02
1.00
1.05
1.07
1.05
1.10
1.05
1.05
1.09
1.09
1.06
1.06
1.05
1.02
1.03
1.07
1.02
0.99
1.04
1.07
1.09
1.04
1.04
1.00
1.00
1.05
1.06
1.05
1.09
1.13
1.05
1.06
1.09
1.11
1.07
1.07
1.06
1.01
1.03
1.06
1.05
1.01
1.05
1.04
1.07
1.03
1.00
0.98
0.99
1.04
1.07
1.05
1.13
1.14
1.07
1.09
1.15
1.15
1.09
1.08
1.07
1.02
1.05
1.07
1.04
1.02
1.07
1.08
1.10
1.06
1.06
1.03
1.00
1.05
1.05
1.01
1.06
1.10
1.05
1.05
1.09
1.10
1.06
1.05
1.05
1.01
1.02
1.05
1.02
0.99
1.05
1.04
1.08
1.06
1.06
1.05
1.03
1.07
1.07
1.05
1.09
1.12
1.05
1.06
1.09
1.11
1.07
1.07
1.03
1.04
1.06
1.04
1.00
1.02
1.00
1.01
0.97
0.99
0.99
0.98
1.03
1.05
1.05
1.12
1.17
1.08
1.08
1.11
1.13
1.10
1.12
1.13
1.08
1.07
1.09
1.07
1.05
1.09
1.09
1.13
1.08
1.08
1.06
1.04
1.06
1.05
1.02
1.06
1.09
1.01
1.00
1.04
1.08
1.05
1.05
1.05
1.01
1.02
1.06
1.03
1.01
1.05
1.05
1.07
1.03
1.04
1.02
1.01
1.05
1.06
1.02
1.06
1.09
1.02
1.06
1.11
1.14
1.10
1.09
1.10
1.05
1.04
1.07
1.04
0.99
1.04
1.05
1.09
1.07
1.06
1.03
1.01
1.05
1.06
1.04
1.09
1.14
1.09
1.10
1.15
1.15
1.05
1.03
1.03
0.99
0.98
0.99
0.98
1.03
1.06
1.09
1.06
1.05
1.03
1.02
1.06
1.06
1.05
1.09
1.13
1.05
1.06
1.10
1.12
1.09
1.08
1.08
1.05
1.03
1.06
1.04
1.00
1.05
1.05
1.10
1.09
1.07
1.04
1.01
1.03
1.02
1.00
1.05
1.10
1.07
1.07
1.08
1.08
1.06
1.08
1.11
1.07
1.07
1.09
1.06
1.02
1.06
1.06
1.09
1.04
1.04
1.01
1.00
1.02
1.04
1.03
1.09
1.12
1.05
1.07
1.09
1.10
1.04
1.01
1.00
0.99
1.05
1.15
1.15
1.09
1.08
1.03
1.04
1.00
1.03
1.03
1.02
1.06
1.03
0.97
0.99
1.03
1.02
1.09
1.21
1.29
1.22
1.14
1.08
1.02
1.01
1.02
1.00
0.93
0.94
0.98
0.95
0.91
0.92
1.02
1.12
1.19
1.16
1.17
1.15
1.07
1.05
1.08
1.09
1.07
1.10
1.16
1.17
1.18
1.18
1.12
1.03
1.03
1.05
1.08
1.03
1.02
0.95
0.89
0.96
1.05
1.09
1.10
1.12
1.03
1.02
1.02
1.04
1.02
1.01
1.02
1.02
1.07
1.11
1.07
1.02
1.06
1.01
1.03
0.99
1.03
1.06
1.10
1.17
1.26
1.24
1.20
1.12
1.00
0.98
1.01
1.12
1.16
1.14
1.11
1.04
1.00
1.01
1.00
1.00
1.04
1.06
1.09
1.05
1.06
1.07
1.06
1.04
1.01
0.98
1.04
1.08
0.96
0.92
0.93
0.99
0.98
0.99
1.01
1.00
1.02
1.09
1.10
1.09
1.11
1.12
1.16
1.06
1.01
1.00
0.97
1.05
1.10
1.12
1.18
1.09
1.09
1.10
1.17
1.18
1.23
1.17
0.92
0.80
0.83
0.90
0.96
1.06
1.05
1.12
1.09
1.06
1.02
1.06
1.12
1.20
1.16
1.18
1.21
1.15
1.16
1.19
1.20
1.13
1.11
1.11
1.08
1.09
1.11
1.05
0.94
0.84
0.79
0.89
0.95
1.05
1.09
1.09
1.06
1.03
0.98
1.03
1.10
1.03
1.04
1.07
1.07
1.05
1.07
1.05
0.94
0.94
1.03
1.06
1.06
1.11
1.13
1.16
1.10
1.09
1.06
1.01
1.02
1.02
0.99
1.05
1.08
0.99
0.96
1.05
1.14
1.09
1.07
1.05
0.97
0.99
1.04
1.09
1.11
1.17
1.20
1.19
1.12
1.13
1.09
1.00
0.88
0.89
0.94
1.06
1.15
1.15
1.14
1.08
1.10
1.16
1.17
1.12
1.01
0.89
0.84
0.85
0.94
1.05
1.15
1.14
1.17
1.12
1.04
1.06
1.08
1.05
1.08
1.16
1.11
1.08
1.09
1.12
1.05
1.03
1.04
1.02
1.07
1.10
1.01
0.88
0.90
0.98
1.09
1.12
1.24
1.19
1.03
0.88
0.80
0.82
0.92
1.03
1.02
1.05
1.18
1.30
1.33
1.30
1.16
1.04
1.06
1.16
1.21
1.15
1.13
1.10
1.14
1.01
0.87
0.85
0.84
0.99
1.16
1.19
1.21
1.20
1.01
1.01
1.15
1.23
1.12
0.98
0.83
0.68
0.71
0.82
0.91
0.95
1.05
1.09
1.17
1.23
1.32
1.31
1.09
0.93
0.91
0.97
1.03
1.04
0.96
0.94
1.10
1.21
1.22
1.24
1.14
1.06
1.07
1.06
0.97
0.94
0.96
0.99
0.97
0.94
0.95
0.98
1.01
0.99
0.96
1.09
1.17
1.14
1.14
1.20
1.31
1.32
1.28
1.16
1.02
0.96
0.98
0.91
0.88
1.01
1.12
1.15
1.11
1.07
1.03
1.03
1.09
1.07
0.98
0.98
1.04
0.98
0.94
0.96
0.95
0.94
1.00
1.07
1.07
1.10
1.13
1.16
1.14
1.10
0.98
1.04
1.09
1.12
1.16
1.06
0.94
1.00
1.10
1.19
1.25
1.20
1.19
1.24
1.19
1.09
1.04
1.01
0.90
0.86
0.87
0.95
0.97
1.00
1.00
1.06
1.04
1.00
0.95
0.96
1.02
1.10
1.14
1.12
1.17
1.07
1.02
1.04
1.04
1.07
1.09
1.10
1.06
1.00
1.09
1.13
1.10
1.10
1.17
1.12
1.06
1.01
1.00
0.97
0.96
0.98
1.04
1.14
1.14
1.16
1.18
1.19
1.10
0.96
0.89
0.86
0.87
0.88
0.92
0.94
1.05
1.17
1.22
1.17
1.19
1.21
1.20
1.16
1.07
0.88
0.86
0.99
0.98
0.96
0.92
1.02
1.09
1.20
1.29
1.27
1.27
1.34
1.34
1.31
1.25
1.07
0.83
0.65
0.67
0.81
0.89
0.93
0.92
0.93
0.99
1.12
1.17
1.16
1.17
1.17
1.07
1.02
1.08
1.05
0.98
0.88
0.79
0.81
1.04
1.15
1.13
0.94
0.94
1.05
1.09
1.14
1.21
1.23
1.24
1.31
1.25
1.18
1.15
1.13
1.07
1.02
0.99
0.95
0.99
1.10
1.09
1.02
1.03
1.12
1.12
1.15
1.21
1.19
1.15
1.06
0.95
0.97
1.06
0.92
0.92
1.00
1.08
1.06
1.00
1.02
1.02
1.00
1.00
0.96
0.84
0.82
0.92
1.08
1.11
1.10
1.04
0.95
0.98
1.09
1.11
1.11
1.15
1.06
1.06
1.04
1.13
1.14
1.11
1.17
1.26
1.28
1.20
1.10
1.03
1.04
1.05
1.08
1.04
1.06
1.06
1.04
1.02
1.01
0.95
1.03
1.21
1.20
1.15
1.07
0.99
0.93
0.93
0.98
1.00
1.03
1.15
1.20
1.06
0.96
0.92
0.90
0.95
1.09
1.17
1.12
1.03
1.07
1.04
1.04
1.15
1.12
1.06
1.08
1.14
1.06
0.97
1.04
1.06
1.05
1.04
0.99
0.96
1.06
1.10
1.11
1.02
0.96
0.97
0.97
1.01
1.02
1.03
1.10
1.07
1.08
1.14
1.17
1.15
1.13
1.15
1.11
1.07
1.07
1.11
1.07
1.05
1.05
1.03
1.02
1.01
1.03
1.02
1.01
1.03
0.98
0.98
1.09
1.09
1.09
1.14
1.24
1.24
1.18
1.09
0.90
0.86
0.93
0.96
0.98
1.10
1.26
1.36
1.29
1.11
0.87
0.71
0.65
0.77
0.92
1.07
1.27
1.29
1.29
1.32
1.29
1.13
1.02
1.00
0.97
1.00
1.05
1.07
1.09
1.17
1.22
1.25
1.16
1.10
1.02
0.83
0.75
0.85
1.00
1.15
1.36
1.39
1.15
0.84
0.65
0.64
0.77
0.91
0.95
1.02
1.12
1.21
1.15
1.12
1.11
1.05
1.00
0.98
0.97
0.97
1.05
1.11
1.11
1.15
1.27
1.20
1.09
1.12
1.16
1.16
1.12
1.06
0.96
0.97
0.93
0.89
0.96
1.08
1.10
1.07
1.06
1.07
1.02
1.02
1.09
1.08
1.09
1.17
1.17
1.13
1.15
1.16
1.16
1.18
1.24
1.15
1.04
0.95
0.90
0.88
0.89
0.98
1.09
1.12
1.15
1.13
0.99
0.93
0.97
0.99
1.04
1.10
1.02
0.97
1.01
1.05
1.05
1.10
1.06
1.02
1.03
1.14
1.20
1.10
1.03
1.07
1.15
1.19
1.13
1.05
0.94
0.92
1.03
1.07
1.12
1.21
1.13
1.03
1.01
0.98
0.96
1.01
1.16
1.12
1.01
0.95
0.89
0.80
0.88
1.01
1.09
1.11
1.11
1.10
1.04
1.02
1.05
1.02
1.04
1.16
1.13
1.07
1.09
1.14
1.14
1.13
1.10
1.09
1.11
1.13
1.06
1.03
1.01
1.03
1.02
1.02
1.02
1.01
1.02
1.05
1.00
1.00
1.12
1.12
1.10
1.17
1.23
1.17
1.10
1.07
1.01
0.99
1.06
1.06
0.99
1.03
1.13
1.19
1.16
1.09
1.06
1.01
0.97
1.05
1.05
1.03
1.07
1.03
0.97
1.01
1.02
0.97
1.01
1.12
1.10
1.02
1.04
1.04
0.99
0.98
1.04
1.02
0.96
0.95
1.02
1.06
1.11
1.18
1.14
1.11
1.13
1.09
1.05
1.08
1.13
1.14
1.12
1.08
0.99
0.95
1.01
1.07
1.03
1.05
1.08
1.07
1.05
1.02
0.98
0.96
0.97
1.03
1.02
1.03
1.14
1.11
1.07
1.13
1.19
1.17
1.11
1.07
1.05
1.06
1.11
1.10
0.96
0.98
1.07
1.10
1.08
1.05
1.05
1.04
1.07
1.05
1.05
1.13
1.08
1.03
1.07
1.10
1.09
1.08
1.08
1.05
1.04
1.07
1.09
1.04
1.04
1.06
1.05
1.04
1.03
1.02
0.99
0.98
1.03
1.04
1.04
1.13
1.09
1.05
1.09
1.13
1.11
1.08
1.08
1.03
1.00
1.03
1.05
0.98
0.97
1.05
1.08
1.09
1.09
1.08
1.05
1.04
1.09
1.07
1.04
1.11
1.10
1.06
1.09
1.12
1.10
1.08
1.08
1.05
1.03
1.07
1.09
1.03
1.03
1.06
1.07
1.06
1.04
1.02
0.99
0.98
1.03
1.03
1.04
1.11
1.09
1.05
1.08
1.12
1.11
1.08
1.08
1.05
1.02
1.03
1.06
1.02
1.02
1.08
1.09
1.08
1.04
1.01
1.01
1.05
1.02
1.03
1.11
1.09
1.07
1.10
1.14
1.11
1.09
1.09
1.05
1.00
1.05
1.08
1.02
1.01
1.06
1.07
1.09
1.06
1.06
1.04
1.04
1.07
1.05
1.01
1.07
1.06
1.02
1.07
1.14
1.12
1.07
1.08
1.06
1.04
1.06
1.05
0.98
0.99
1.04
1.03
1.03
1.04
1.03
1.01
1.02
1.05
1.06
1.05
1.12
1.11
1.06
1.09
1.13
1.11
1.09
1.09
1.06
1.02
1.04
1.06
1.01
1.00
1.05
1.06
1.07
1.06
1.05
1.02
1.02
1.06
1.05
1.03
1.12
1.10
1.05
1.08
1.11
1.11
1.08
1.08
1.05
1.00
1.04
1.07
1.04
1.02
1.07
1.07
1.07
1.05
1.04
1.02
1.01
1.06
1.04
1.12
1.11
1.06
1.07
1.10
1.09
1.08
1.09
1.07
1.02
1.05
1.08
1.02
1.01
1.06
1.06
1.06
1.05
1.04
1.02
1.02
1.05
1.04
1.02
1.12
1.12
1.06
1.09
1.12
1.10
1.08
1.08
1.06
1.02
1.05
1.08
1.02
1.02
1.06
1.07
1.07
1.03
1.02
1.01
1.02
1.07
1.06
1.04
1.13
1.12
1.07
1.09
1.14
1.13
1.09
1.09
1.07
1.02
1.05
1.07
0.99
0.95
1.02
1.05
1.07
1.04
1.02
1.00
0.99
1.04
1.03
1.02
1.10
1.09
1.03
1.07
1.10
1.10
1.07
1.08
1.05
1.02
1.06
1.09
1.04
1.03
1.07
1.07
1.08
1.06
1.05
1.03
1.02
1.06
1.05
1.04
1.11
1.10
1.02
1.11
1.11
1.07
1.07
1.05
1.03
1.04
1.08
1.02
1.01
1.05
1.06
1.07
1.05
1.05
1.03
1.01
1.05
1.05
1.05
1.13
1.13
1.07
1.08
1.12
1.11
1.08
1.08
1.05
1.01
1.04
1.08
1.03
1.01
1.05
1.05
1.06
1.04
1.05
1.04
1.02
1.06
1.06
1.03
1.11
1.11
1.04
1.08
1.11
1.11
1.08
1.08
1.06
1.02
1.04
1.07
1.02
1.00
1.08
1.07
1.08
1.05
1.05
1.02
1.01
1.05
1.04
1.02
1.10
1.10
1.05
1.08
1.12
1.12
1.07
1.07
1.06
1.04
1.07
1.08
1.03
1.01
1.05
1.05
1.06
1.03
1.03
1.01
1.01
1.06
1.05
1.03
1.10
1.11
1.04
1.08
1.12
1.12
1.08
1.08
1.02
1.04
1.07
1.02
1.00
1.06
1.06
1.08
1.03
1.05
1.02
1.02
1.06
1.06
1.04
1.11
1.11
1.05
1.07
1.11
1.11
1.08
1.07
1.04
1.02
1.04
1.07
1.02
1.01
1.06
1.07
1.09
1.06
1.06
1.02
1.02
1.05
1.05
1.02
1.10
1.11
1.05
1.07
1.12
1.11
1.09
1.09
1.06
1.01
1.04
1.09
1.04
1.02
1.06
1.05
1.06
1.04
1.03
1.01
1.00
1.05
1.05
1.04
1.11
1.13
1.07
1.08
1.11
1.11
1.08
1.09
1.09
1.04
1.05
1.08
1.03
1.00
1.04
1.05
1.07
1.03
1.03
1.02
1.00
1.04
1.04
1.04
1.12
1.13
1.06
1.08
1.11
1.12
1.08
1.08
1.07
1.02
1.04
1.07
1.03
1.05
1.05
1.07
1.03
1.04
1.02
1.02
1.07
1.06
1.04
1.10
1.13
1.05
1.07
1.11
1.12
1.09
1.09
1.07
1.02
1.05
1.07
1.02
0.99
1.06
1.07
1.09
1.05
1.04
1.02
0.99
1.05
1.05
1.03
1.10
1.12
1.05
1.07
1.10
1.13
1.10
1.08
1.07
1.01
1.03
1.06
1.02
1.00
1.05
1.06
1.06
1.02
1.03
1.01
1.01
1.05
1.05
1.03
1.12
1.12
1.05
1.06
1.12
1.12
1.07
1.07
1.06
1.01
1.04
1.07
1.04
1.01
1.06
1.07
1.09
1.05
1.03
1.01
1.01
1.07
1.06
1.04
1.11
1.13
1.06
1.07
1.11
1.12
1.08
1.08
1.07
1.02
1.04
1.08
1.03
1.01
1.06
1.04
1.07
1.04
1.03
1.02
1.06
1.06
1.03
1.09
1.11
1.05
1.07
1.11
1.11
1.08
1.08
1.05
1.01
1.03
1.08
1.05
1.01
1.06
1.06
1.08
1.04
1.04
1.02
1.00
1.05
1.05
1.03
1.09
1.13
1.05
1.06
1.09
1.11
1.09
1.08
1.08
1.02
1.04
1.07
1.03
1.00
1.04
1.05
1.08
1.05
1.04
1.03
1.01
1.04
1.04
1.03
1.09
1.14
1.06
1.07
1.11
1.12
1.08
1.08
1.08
1.03
1.04
1.07
1.03
1.00
1.05
1.06
1.09
1.03
1.05
1.02
1.00
1.04
1.05
1.04
1.11
1.13
1.06
1.07
1.10
1.10
1.06
1.04
1.03
0.99
1.01
1.05
1.03
1.01
1.05
1.05
1.09
1.06
1.05
1.02
1.00
1.04
1.05
1.09
1.13
1.07
1.09
1.12
1.11
1.09
1.09
1.09
1.05
1.05
1.09
1.05
1.02
1.06
1.05
1.09
1.04
1.04
1.02
1.01
1.04
1.06
1.03
1.08
1.11
1.05
1.07
1.13
1.14
1.10
1.09
1.08
1.02
1.04
1.08
1.03
1.00
1.04
1.05
1.08
1.04
1.04
1.01
0.99
1.04
1.07
1.04
1.10
1.14
1.06
1.07
1.11
1.12
1.08
1.08
1.07
1.02
1.03
1.06
1.03
1.00
1.03
1.03
1.07
1.05
1.06
1.03
1.02
1.05
1.06
1.04
1.09
1.13
1.05
1.06
1.09
1.11
1.08
1.08
1.08
1.03
1.03
1.06
1.03
0.99
1.05
1.06
1.09
1.05
1.05
1.02
1.00
1.05
1.06
1.03
1.09
1.12
1.07
1.07
1.13
1.07
1.08
1.09
1.04
1.04
1.08
1.04
1.00
1.04
1.04
1.08
1.04
1.05
1.03
0.99
1.04
1.05
1.03
1.09
1.13
1.06
1.09
1.12
1.13
1.09
1.08
1.06
1.01
1.03
1.08
1.05
1.00
1.06
1.06
1.10
1.03
1.04
1.02
1.02
1.07
1.07
1.04
1.08
1.12
1.05
1.05
1.09
1.12
1.09
1.08
1.08
1.03
1.04
1.08
1.05
1.00
1.04
1.05
1.08
1.06
1.05
1.03
1.01
1.04
1.05
1.04
1.09
1.14
1.07
1.07
1.11
1.13
1.08
1.06
1.06
1.02
1.04
1.07
1.04
1.00
1.04
1.06
1.09
1.04
1.04
1.02
1.00
1.05
1.06
1.03
1.09
1.14
1.06
1.07
1.09
1.11
1.07
1.08
1.08
1.04
1.08
1.05
1.01
1.04
1.04
1.07
1.05
1.04
1.02
0.99
1.03
1.06
1.05
1.10
1.14
1.07
1.07
1.09
1.12
1.09
1.08
1.08
1.02
1.04
1.08
1.05
1.00
1.05
1.05
1.06
1.05
1.05
1.03
1.01
1.05
1.05
1.04
1.09
1.14
1.06
1.06
1.09
1.12
1.08
1.07
1.08
1.03
1.02
1.06
1.03
0.99
1.05
1.06
1.09
1.04
1.04
1.02
1.00
1.04
1.06
1.04
1.09
1.14
1.06
1.06
1.10
1.13
1.09
1.08
1.07
1.00
1.01
1.09
1.06
1.01
1.06
1.05
1.09
1.05
1.06
1.03
1.01
1.04
1.05
1.02
1.07
1.14
1.07
1.07
1.11
1.13
1.09
1.08
1.08
1.02
1.03
1.06
1.04
1.00
1.05
1.08
1.04
1.03
1.01
1.00
1.05
1.07
1.05
1.09
1.14
1.07
1.07
1.10
1.13
1.09
1.08
1.09
1.03
1.03
1.07
1.06
1.00
1.03
1.04
1.09
1.05
1.06
1.03
1.01
1.04
1.06
1.04
1.08
1.13
1.06
1.05
1.10
1.12
1.09
1.06
1.06
1.02
1.03
1.08
1.06
1.00
1.05
1.05
1.08
1.04
1.05
1.02
1.01
1.04
1.06
1.04
1.08
1.14
1.06
1.04
1.10
1.13
1.09
1.08
1.09
1.03
1.02
1.06
1.04
0.99
1.03
1.04
1.08
1.04
1.03
1.01
1.00
1.02
1.05
1.02
1.08
1.15
1.07
1.08
1.10
1.12
1.09
1.08
1.08
1.02
1.03
1.07
1.05
1.00
1.05
1.05
1.09
1.05
1.04
1.00
1.05
1.07
1.04
1.08
1.14
1.07
1.07
1.10
1.13
1.10
1.08
1.08
1.03
1.02
1.06
1.04
0.99
1.04
1.06
1.09
1.05
1.06
1.03
1.01
1.03
1.06
1.03
1.08
1.13
1.07
1.06
1.10
1.13
1.09
1.09
1.07
1.01
1.02
1.09
1.07
1.01
1.04
1.05
1.09
1.05
1.04
1.03
1.00
1.04
1.06
1.04
1.07
1.12
1.04
1.04
1.10
1.13
1.09
1.08
1.08
1.03
1.03
1.07
1.05
0.99
1.03
1.05
1.09
1.04
1.03
1.01
1.00
1.05
1.07
1.04
1.08
1.14
1.07
1.05
1.10
1.13
1.09
1.08
1.09
1.03
1.02
1.07
1.05
1.00
1.04
1.06
1.08
1.04
1.04
1.01
1.01
1.04
1.06
1.03
1.13
1.07
1.05
1.10
1.13
1.09
1.08
1.09
1.02
1.02
1.06
1.05
0.99
1.04
1.06
1.09
1.06
1.06
1.04
1.01
1.03
1.06
1.03
1.06
1.14
1.07
1.06
1.09
1.12
1.08
1.08
1.09
1.04
1.04
1.07
1.05
1.00
1.04
1.05
1.09
1.05
1.05
1.03
1.01
1.03
1.06
1.04
1.07
1.12
1.06
1.05
1.09
1.15
1.10
1.08
1.08
1.04
1.03
1.06
1.05
1.00
1.04
1.05
1.08
1.04
1.05
1.02
1.01
1.02
1.05
1.03
1.08
1.15
1.08
1.07
1.11
1.13
1.09
1.07
1.08
1.03
1.03
1.05
1.04
1.00
1.04
1.06
1.09
1.05
1.05
1.02
1.01
1.03
1.06
1.03
1.06
1.13
1.07
1.06
1.11
1.09
1.09
1.09
1.04
1.03
1.06
1.05
0.99
1.05
1.07
1.09
1.06
1.06
1.03
1.01
1.03
1.06
1.03
1.07
1.14
1.08
1.06
1.11
1.15
1.10
1.08
1.08
1.03
1.02
1.07
1.05
1.00
1.04
1.05
1.08
1.05
1.05
1.02
1.00
1.02
1.06
1.03
1.07
1.16
1.09
1.05
1.11
1.14
1.10
1.08
1.08
1.03
1.02
1.06
1.07
1.00
1.04
1.06
1.09
1.04
1.04
1.02
1.02
1.05
1.07
1.05
1.07
1.14
1.07
1.06
1.09
1.13
1.09
1.08
1.08
1.03
1.02
1.05
1.05
1.00
1.04
1.07
1.09
1.07
1.06
1.03
1.01
1.03
1.06
1.04
1.06
1.13
1.07
1.05
1.07
1.11
1.08
1.09
1.09
1.04
1.07
1.05
1.00
1.03
1.04
1.08
1.05
1.05
1.03
1.01
1.03
1.06
1.04
1.06
1.12
1.06
1.05
1.10
1.14
1.10
1.09
1.09
1.05
1.02
1.07
1.06
1.00
1.03
1.05
1.07
1.04
1.04
1.02
1.01
1.04
1.07
1.05
1.07
1.14
1.08
1.06
1.09
1.14
1.10
1.08
1.08
1.03
1.02
1.07
1.06
1.00
1.02
1.05
1.09
1.06
1.05
1.03
1.00
1.03
1.06
1.04
1.06
1.14
1.08
1.04
1.09
1.12
1.09
1.06
1.07
1.03
1.03
1.07
1.07
1.00
1.03
1.06
1.09
1.05
1.05
1.02
1.01
1.03
1.07
1.04
1.06
1.14
1.09
1.04
1.08
1.12
1.10
1.08
1.08
1.04
1.02
1.07
1.05
0.99
1.02
1.09
1.06
1.05
1.03
1.01
1.03
1.06
1.04
1.06
1.14
1.07
1.05
1.10
1.13
1.10
1.09
1.10
1.05
1.03
1.07
1.06
1.01
1.03
1.06
1.09
1.06
1.06
1.02
1.00
1.01
1.06
1.05
1.07
1.15
1.09
1.06
1.10
1.14
1.09
1.07
1.07
1.03
1.02
1.05
1.05
0.99
1.02
1.06
1.09
1.06
1.06
1.04
1.02
1.03
1.05
1.04
1.06
1.14
1.09
1.06
1.09
1.13
1.09
1.07
1.09
1.05
1.02
1.06
1.07
1.01
1.03
1.06
1.08
1.05
1.05
1.03
1.00
1.02
1.06
1.04
1.06
1.14
1.08
1.05
1.09
1.13
1.10
1.08
1.09
1.04
1.02
1.06
1.06
1.01
1.03
1.06
1.08
1.03
1.03
1.02
1.02
1.06
1.03
1.04
1.14
1.09
1.07
1.11
1.13
1.09
1.07
1.09
1.04
1.02
1.06
1.07
1.02
1.03
1.06
1.08
1.05
1.05
1.04
1.01
1.02
1.07
1.06
1.07
1.14
1.09
1.06
1.10
1.14
1.09
1.07
1.08
1.04
1.02
1.04
1.05
1.00
1.01
1.05
1.09
1.07
1.06
1.05
1.02
1.03
1.07
1.04
1.05
1.13
1.09
1.03
1.08
1.12
1.11
1.09
1.09
1.05
1.02
1.06
1.08
1.01
1.02
1.05
1.07
1.05
1.05
1.03
1.01
1.02
1.06
1.04
1.04
1.12
1.07
1.05
1.09
1.13
1.10
1.08
1.08
1.05
1.02
1.06
1.07
1.00
1.02
1.05
1.07
1.04
1.03
1.03
1.02
1.03
1.07
1.05
1.04
1.09
1.06
1.09
1.13
1.10
1.08
1.08
1.04
1.01
1.06
1.07
1.01
1.02
1.04
1.07
1.06
1.05
1.04
1.01
1.02
1.07
1.05
1.05
1.13
1.10
1.05
1.09
1.13
1.10
1.07
1.08
1.04
1.01
1.05
1.09
1.02
1.03
1.07
1.08
1.06
1.05
1.03
1.01
1.02
1.06
1.04
1.05
1.12
1.09
1.04
1.09
1.14
1.11
1.09
1.09
1.05
1.02
1.07
1.07
1.01
1.02
1.05
1.07
1.05
1.04
1.03
1.01
1.02
1.05
1.03
1.04
1.13
1.09
1.07
1.10
1.13
1.10
1.07
1.08
1.04
1.02
1.06
1.07
1.02
1.01
1.04
1.06
1.06
1.06
1.05
1.03
1.02
1.06
1.04
1.05
1.13
1.09
1.06
1.09
1.13
1.08
1.08
1.04
1.02
1.05
1.06
0.99
1.01
1.07
1.09
1.06
1.05
1.04
1.02
1.02
1.06
1.04
1.05
1.14
1.09
1.06
1.08
1.11
1.09
1.08
1.08
1.05
1.03
1.07
1.08
1.01
1.03
1.06
1.07
1.05
1.05
1.04
1.02
1.02
1.06
1.04
1.06
1.13
1.10
1.05
1.09
1.13
1.10
1.08
1.08
1.04
1.02
1.06
1.07
0.99
1.01
1.06
1.06
1.05
1.05
1.03
1.00
1.00
1.05
1.04
1.06
1.14
1.09
1.06
1.09
1.13
1.10
1.07
1.08
1.06
1.02
1.06
1.08
1.02
1.01
1.04
1.07
1.06
1.06
1.05
1.02
1.02
1.06
1.04
1.04
1.13
1.09
1.05
1.09
1.12
1.08
1.06
1.07
1.07
1.03
1.09
1.02
1.02
1.06
1.07
1.06
1.05
1.03
1.00
1.02
1.06
1.05
1.04
1.13
1.10
1.05
1.09
1.12
1.10
1.08
1.09
1.06
1.03
1.06
1.07
1.01
1.01
1.05
1.06
1.05
1.04
1.03
1.01
1.00
1.05
1.07
1.05
1.15
1.10
1.06
1.09
1.13
1.10
1.07
1.08
1.05
1.01
1.05
1.07
1.01
1.01
1.05
1.07
1.05
1.05
1.03
1.00
1.01
1.07
1.05
1.04
1.12
1.09
1.05
1.09
1.12
1.10
1.08
1.09
1.05
1.02
1.04
1.07
1.02
1.02
1.06
1.07
1.06
1.05
1.04
1.01
1.01
1.06
1.05
1.04
1.13
1.08
1.04
1.07
1.12
1.10
1.08
1.08
1.06
1.02
1.06
1.08
1.01
1.01
1.05
1.07
1.05
1.04
1.02
1.02
1.07
1.05
1.04
1.11
1.09
1.04
1.09
1.14
1.12
1.09
1.08
1.05
1.01
1.05
1.07
1.01
1.01
1.05
1.07
1.06
1.05
1.04
1.01
1.01
1.06
1.03
1.02
1.11
1.10
1.06
1.11
1.14
1.12
1.09
1.08
1.05
1.01
1.04
1.08
1.01
0.99
1.04
1.05
1.07
1.06
1.06
1.03
1.03
1.07
1.05
1.05
1.13
1.10
1.05
1.08
1.13
1.11
1.08
1.08
1.06
1.02
1.06
1.07
1.00
1.00
1.05
1.08
1.07
1.05
1.04
1.02
1.01
1.06
1.04
1.03
1.12
1.09
1.05
1.08
1.10
1.09
1.06
1.09
1.07
1.04
1.06
1.08
1.01
1.01
1.05
1.06
1.06
1.04
1.03
1.01
1.04
1.05
1.04
1.12
1.11
1.06
1.09
1.13
1.11
1.08
1.08
1.05
1.01
1.04
1.06
1.01
1.00
1.05
1.06
1.06
1.05
1.05
1.01
1.00
1.05
1.06
1.05
1.13
1.11
1.07
1.09
1.13
1.11
1.08
1.09
1.06
1.02
1.06
1.09
1.03
1.00
1.05
1.07
1.08
1.06
1.04
1.01
1.02
1.06
1.04
1.04
1.11
1.10
1.05
1.08
1.10
1.10
1.07
1.07
1.05
1.03
1.06
1.09
1.02
1.01
1.05
1.06
1.06
1.04
1.04
1.01
1.01
1.05
1.05
1.04
1.11
1.10
1.06
1.08
1.11
1.10
1.08
1.09
1.07
1.02
1.05
1.08
1.02
1.00
1.05
1.06
1.06
1.04
1.04
1.01
1.00
1.04
1.04
1.04
1.12
1.07
1.09
1.13
1.12
1.09
1.09
1.07
1.02
1.05
1.08
1.03
0.99
1.04
1.06
1.08
1.05
1.04
1.01
1.00
1.06
1.04
1.03
1.11
1.11
1.05
1.09
1.11
1.10
1.08
1.09
1.07
1.02
1.06
1.08
1.01
1.00
1.06
1.06
1.06
1.05
1.04
1.02
1.01
1.06
1.05
1.03
1.11
1.11
1.03
1.06
1.11
1.11
1.07
1.08
1.06
1.03
1.05
1.08
1.02
1.01
1.06
1.06
1.07
1.05
1.04
1.00
1.01
1.07
1.06
1.02
1.17
1.19
1.10
1.37
1.27
1.17
1.09
1.07
1.04
1.00
1.04
1.08
1.03
1.02
1.06
1.07
1.07
1.02
1.01
0.98
0.98
1.02
1.00
0.97
1.05
1.04
0.98
1.01
1.06
1.06
1.04
1.02
0.99
1.02
1.06
1.02
1.00
1.05
1.04
1.07
1.06
1.05
1.03
1.02
1.06
1.05
1.03
1.11
1.11
1.05
1.07
1.11
1.11
1.06
1.07
1.06
1.03
1.06
1.09
1.04
1.01
1.07
1.07
1.08
1.05
1.05
1.02
1.02
1.07
1.05
1.03
1.10
1.11
1.05
1.07
1.10
1.11
1.09
1.09
1.07
1.02
1.05
1.08
1.02
1.00
1.05
1.06
1.07
1.05
1.04
1.02
1.02
1.05
1.06
1.04
1.12
1.12
1.05
1.08
1.11
1.11
1.08
1.08
1.07
1.01
1.03
1.07
1.03
0.99
1.05
1.05
1.08
1.06
1.05
1.02
1.01
1.06
1.05
1.03
1.10
1.11
1.06
1.08
1.12
1.12
1.09
1.08
1.07
1.03
1.05
1.02
1.00
1.06
1.07
1.08
1.05
1.04
1.02
1.00
1.05
1.04
1.03
1.10
1.12
1.05
1.08
1.10
1.11
1.08
1.08
1.09
1.04
1.06
1.08
1.03
1.00
1.06
1.06
1.07
1.05
1.04
1.03
1.01
1.05
1.03
1.02
1.09
1.12
1.06
1.08
1.13
1.12
1.08
1.08
1.06
1.01
1.04
1.07
1.03
1.00
1.05
1.05
1.07
1.05
1.05
1.01
1.00
1.05
1.06
1.05
1.12
1.13
1.05
1.08
1.12
1.12
1.08
1.07
1.07
1.02
1.04
1.07
1.03
0.98
1.04
1.04
1.06
1.05
1.06
1.03
1.01
1.05
1.06
1.03
1.10
1.12
1.05
1.07
1.12
1.12
1.07
1.08
1.05
1.01
1.05
1.08
1.03
1.01
1.05
1.05
1.05
1.05
1.02
1.01
1.05
1.05
1.02
1.09
1.11
1.06
1.07
1.11
1.11
1.10
1.08
1.07
1.01
1.05
1.08
1.04
1.01
1.06
1.06
1.08
1.04
1.04
1.02
1.00
1.05
1.04
1.03
1.11
1.14
1.07
1.10
1.13
1.13
1.09
1.08
1.07
1.02
1.03
1.07
1.04
1.00
1.06
1.06
1.07
1.04
1.04
1.02
1.02
1.06
1.06
1.04
1.10
1.13
1.06
1.07
1.11
1.12
1.08
1.08
1.07
1.02
1.04
1.07
1.01
0.99
1.07
1.07
1.09
1.05
1.05
1.02
1.01
1.06
1.06
1.03
1.09
1.12
1.05
1.07
1.11
1.11
1.06
1.06
1.06
1.03
1.05
1.09
1.04
1.00
1.05
1.05
1.08
1.04
1.05
1.02
1.01
1.04
1.02
1.09
1.14
1.06
1.08
1.12
1.13
1.08
1.08
1.07
1.02
1.03
1.07
1.03
1.00
1.05
1.06
1.09
1.04
1.05
1.02
1.00
1.05
1.06
1.03
1.10
1.13
1.06
1.07
1.11
1.13
1.09
1.08
1.07
1.02
1.02
1.05
1.02
0.99
1.05
1.04
1.08
1.03
1.04
1.07
2.14
1.61
1.25
1.06
1.04
1.05
0.99
1.03
1.11
1.15
1.12
1.12
1.12
1.07
1.06
1.06
0.99
0.91
0.91
0.87
0.87
0.81
0.80
0.77
0.76
0.82
0.85
0.85
0.94
1.00
0.95
0.99
1.05
1.07
1.06
1.07
1.09
1.04
1.07
1.09
1.05
1.00
1.05
1.04
1.07
1.03
1.03
1.01
0.97
1.03
1.04
1.03
1.10
1.14
1.08
1.13
1.15
1.10
1.09
1.09
1.04
1.06
1.09
1.06
1.01
1.06
1.07
1.09
1.04
1.04
1.04
1.03
1.07
1.07
1.05
1.10
1.15
1.07
1.08
1.13
1.14
1.09
1.09
1.09
1.03
1.04
1.09
1.06
1.00
1.05
1.04
1.09
1.05
1.06
1.03
1.01
1.05
1.06
1.04
1.09
1.13
1.06
1.07
1.11
1.13
1.08
1.08
1.09
1.03
1.05
1.08
1.04
1.00
1.05
1.06
1.09
1.05
1.05
1.01
0.99
1.03
1.05
1.03
1.09
1.14
1.08
1.07
1.10
1.11
1.09
1.09
1.09
1.03
1.04
1.07
1.05
1.00
1.06
1.06
1.09
1.04
1.05
1.03
1.00
1.04
1.05
1.02
1.08
1.13
1.07
1.07
1.11
1.13
1.08
1.08
1.01
1.02
1.07
1.04
1.00
1.06
1.04
1.08
1.04
1.05
1.03
1.01
1.05
1.07
1.05
1.09
1.14
1.07
1.08
1.11
1.14
1.09
1.08
1.08
1.00
1.01
1.06
1.06
1.01
1.06
1.06
1.09
1.05
1.05
1.03
1.00
1.04
1.05
1.03
1.09
1.14
1.05
1.05
1.10
1.14
1.10
1.09
1.09
1.02
1.02
1.07
1.05
1.00
1.04
1.05
1.09
1.04
1.05
1.02
1.01
1.04
1.06
1.03
1.07
1.12
1.07
1.07
1.11
1.13
1.09
1.08
1.08
1.02
1.03
1.07
1.04
0.99
1.04
1.05
1.08
1.02
1.05
1.03
1.01
1.06
1.06
1.03
1.09
1.14
1.06
1.07
1.11
1.13
1.09
1.07
1.06
1.00
1.01
1.06
0.98
1.04
1.06
1.09
1.05
1.04
1.01
0.99
1.03
1.05
1.03
1.09
1.15
1.07
1.07
1.12
1.15
1.10
1.08
1.07
1.03
1.04
1.09
1.07
1.01
1.06
1.06
1.09
1.05
1.06
1.03
1.01
1.05
1.07
1.04
1.09
1.12
1.04
1.05
1.09
1.14
1.09
1.07
1.08
1.01
1.02
1.06
1.04
0.99
1.04
1.06
1.09
1.05
1.05
1.03
1.00
1.03
1.05
1.04
1.09
1.16
1.07
1.07
1.11
1.13
1.09
1.07
1.08
1.02
1.03
1.07
1.05
1.00
1.04
1.04
1.07
1.02
1.03
1.03
1.02
1.04
1.06
1.04
1.08
1.13
1.06
1.05
1.10
1.13
1.09
1.08
1.07
1.01
1.01
1.06
1.06
1.00
1.05
1.05
1.09
1.05
1.03
1.01
1.04
1.06
1.04
1.08
1.15
1.07
1.06
1.11
1.13
1.09
1.08
1.08
1.03
1.02
1.07
1.05
0.99
1.04
1.05
1.08
1.03
1.03
1.02
1.01
1.03
1.07
1.03
1.08
1.13
1.06
1.06
1.12
1.14
1.09
1.09
1.08
1.03
1.03
1.07
1.05
1.01
1.05
1.06
1.09
1.05
1.06
1.03
1.01
1.03
1.05
1.03
1.09
1.15
1.07
1.06
1.10
1.13
1.08
1.07
1.07
1.02
1.03
1.07
1.05
0.99
1.02
1.04
1.06
1.02
1.05
1.04
1.01
1.03
1.06
1.04
1.06
1.12
1.05
1.06
1.10
1.13
1.09
1.09
1.10
1.04
1.04
1.08
1.08
1.03
1.06
1.07
1.10
1.06
1.06
1.04
1.01
1.04
1.04
1.07
1.12
1.05
1.04
1.08
1.13
1.09
1.08
1.07
1.00
1.01
1.05
1.05
0.99
1.02
1.04
1.07
1.04
1.05
1.04
1.01
1.05
1.08
1.03
1.07
1.13
1.07
1.07
1.10
1.14
1.10
1.08
1.09
1.02
1.02
1.06
1.05
0.99
1.03
1.05
1.08
1.03
1.04
1.03
1.01
1.03
1.07
1.04
1.07
1.15
1.07
1.06
1.10
1.14
1.09
1.07
1.07
1.01
1.01
1.05
1.04
0.99
1.04
1.05
1.08
1.04
1.05
1.03
1.00
1.03
1.06
1.04
1.07
1.14
1.08
1.06
1.09
1.14
1.09
1.08
1.07
1.02
1.02
1.08
1.07
1.00
1.04
1.05
1.07
1.04
1.04
1.02
1.00
1.03
1.05
1.03
1.06
1.13
1.06
1.12
1.15
1.10
1.10
1.09
1.04
1.04
1.09
1.07
1.01
1.05
1.08
1.11
1.08
1.07
1.04
1.03
1.02
1.05
1.03
1.08
1.14
1.08
1.06
1.09
1.12
1.09
1.07
1.07
1.01
1.02
1.06
1.03
0.96
1.00
1.04
1.09
1.04
1.04
1.02
0.99
1.02
1.05
1.03
1.04
1.10
1.05
1.04
1.09
1.14
1.10
1.07
1.07
1.01
1.02
1.07
1.08
1.01
1.04
1.06
1.10
1.09
1.10
1.08
1.06
1.07
1.09
1.06
1.08
1.15
1.08
1.05
1.07
1.09
1.04
1.07
1.08
1.04
1.00
1.05
1.06
1.01
1.03
1.04
1.08
1.05
1.05
1.03
0.99
0.96
0.96
0.94
1.00
1.16
1.11
1.10
1.16
1.20
1.17
1.15
1.08
0.98
0.99
1.00
0.98
1.03
1.06
1.10
1.04
1.06
0.94
0.90
0.96
0.97
0.93
0.97
1.07
1.03
0.98
1.04
1.14
1.15
1.18
1.19
1.16
1.14
1.17
1.16
1.08
1.10
1.13
1.18
1.16
1.19
1.18
1.14
1.14
1.17
1.09
1.07
1.09
1.02
0.97
0.99
1.02
0.98
0.96
0.98
0.96
0.99
1.05
1.06
0.97
0.98
0.95
0.99
0.99
1.04
1.05
1.06
1.10
1.14
1.13
1.15
1.24
1.16
1.08
1.04
1.06
1.02
1.03
1.06
0.90
0.80
0.86
0.91
0.87
0.92
0.99
1.05
1.06
1.09
1.11
1.10
1.10
1.12
1.09
1.07
1.17
1.13
1.12
1.17
1.23
1.19
1.17
1.17
1.08
1.04
1.03
0.99
0.99
1.01
1.01
0.96
0.97
0.99
0.98
1.01
1.06
1.05
1.03
1.09
1.05
1.03
1.10
1.17
1.13
1.12
1.16
1.14
1.12
1.17
1.15
1.07
1.09
1.06
1.02
0.94
0.92
0.91
0.89
0.87
0.91
0.96
1.04
1.19
1.13
1.05
1.03
1.06
1.06
1.07
1.10
1.07
1.05
1.11
1.16
1.11
1.14
1.16
1.21
1.19
1.19
1.06
0.95
0.98
1.04
1.04
1.01
1.01
0.93
0.93
1.01
1.10
1.11
1.04
1.02
1.04
1.02
1.03
1.04
0.99
1.05
1.14
1.23
1.23
1.23
1.19
1.16
1.17
1.22
1.18
1.17
1.21
1.19
1.12
1.06
1.04
0.98
0.95
0.96
0.92
0.93
1.01
0.98
0.84
0.84
0.87
0.89
0.90
1.06
1.13
1.22
1.25
1.19
1.13
1.18
1.10
1.06
1.06
1.05
1.03
1.07
1.12
1.12
1.12
1.14
1.12
1.02
0.99
0.94
0.94
0.91
0.85
0.82
0.82
0.90
1.01
1.10
1.16
1.28
1.23
1.14
1.15
1.09
1.04
0.99
0.90
0.84
0.89
1.07
1.19
1.20
1.25
1.29
1.30
1.09
0.86
0.78
0.75
0.78
0.94
1.06
1.20
1.34
1.30
1.21
1.19
1.17
1.11
1.16
1.24
1.31
1.26
1.19
1.16
1.01
0.91
0.90
0.89
0.91
0.95
0.93
0.92
0.97
1.03
1.03
1.05
1.16
1.13
1.12
1.09
0.94
0.83
0.78
0.85
0.87
0.85
0.92
0.95
0.99
1.05
1.04
1.13
1.20
1.29
1.34
1.31
1.26
1.20
1.07
1.14
1.13
1.11
1.13
1.19
1.21
1.23
1.27
1.20
1.11
1.09
1.06
0.94
0.93
0.99
1.01
0.93
0.80
0.68
0.54
0.53
0.73
1.02
1.25
1.40
1.25
1.11
1.09
1.11
1.09
1.09
1.12
1.06
0.89
0.93
1.00
0.99
0.97
1.04
1.17
1.34
1.41
1.26
0.98
0.90
0.98
1.17
1.19
1.17
0.99
0.90
1.05
1.22
1.24
1.17
1.16
1.11
1.04
1.06
1.11
1.11
1.13
1.15
1.11
1.04
1.00
0.98
0.97
0.98
1.02
1.00
0.98
1.02
0.94
0.87
0.90
0.95
0.97
0.98
1.03
1.02
1.01
1.07
1.08
1.01
1.03
1.09
1.11
0.92
0.85
0.94
1.06
1.16
1.12
1.02
0.99
1.16
1.24
1.22
1.25
1.16
0.95
0.85
0.85
0.96
1.16
1.23
1.25
1.21
1.18
1.21
1.21
1.17
1.13
1.13
1.07
1.07
1.04
1.05
1.11
1.04
0.94
1.00
1.14
1.20
1.23
1.16
0.93
0.65
0.62
0.76
0.83
0.96
1.07
1.04
0.98
0.96
1.04
1.06
1.03
0.98
1.02
1.12
1.32
1.38
1.33
1.25
1.17
1.10
1.04
1.04
1.09
1.13
1.21
1.21
1.13
1.10
1.05
1.02
0.99
0.98
0.96
0.93
0.91
0.92
0.90
0.90
0.99
0.96
0.94
1.02
1.09
1.09
1.08
1.08
1.06
1.06
1.11
1.15
1.10
1.10
1.12
1.12
1.10
1.07
1.05
1.00
1.00
1.05
1.08
1.12
1.25
1.14
0.99
1.04
1.13
1.07
0.97
0.93
0.91
1.00
1.12
1.20
1.24
1.22
1.15
0.99
0.92
0.89
0.85
0.95
1.09
1.09
1.05
1.09
1.09
1.11
1.18
1.20
1.13
1.06
1.06
1.04
1.03
1.06
1.07
1.01
1.00
1.04
1.07
1.07
1.08
1.03
0.91
0.92
1.01
1.09
1.11
1.18
1.12
1.06
1.10
1.14
1.17
1.14
1.12
1.06
1.01
1.03
1.09
1.07
1.05
1.05
1.04
1.04
1.02
1.02
1.05
1.05
1.07
1.04
1.01
1.12
1.12
1.08
1.08
1.08
1.04
1.00
1.00
0.99
0.93
0.97
1.04
1.03
1.05
1.14
1.13
1.05
0.95
0.96
1.01
1.08
1.19
1.13
0.98
0.97
0.98
1.01
1.09
1.18
1.23
1.25
1.29
1.16
0.94
0.94
1.03
1.04
1.11
1.07
1.03
1.00
1.00
1.04
1.11
1.14
1.07
1.05
1.11
1.12
1.09
1.09
1.06
1.04
0.90
0.96
1.07
1.10
1.11
1.07
0.96
0.93
0.95
1.02
1.09
1.07
1.06
1.00
0.98
1.02
1.05
1.03
1.12
1.07
1.01
1.12
1.12
1.09
1.11
1.14
1.16
1.11
1.08
1.04
0.98
1.07
1.21
1.14
1.09
1.03
1.04
1.01
1.00
1.06
1.05
0.97
1.07
1.13
1.14
1.13
1.03
0.97
1.00
1.01
0.99
1.00
1.11
1.11
0.93
0.83
0.95
1.12
1.19
1.08
0.96
0.94
0.97
1.09
1.13
1.15
1.21
1.13
1.02
1.07
1.17
1.21
1.14
1.08
0.99
0.92
0.94
0.99
0.97
0.99
1.07
1.09
1.12
1.12
1.10
1.01
0.99
0.94
0.91
1.03
1.06
1.01
1.01
1.09
1.13
1.13
1.11
1.08
1.01
1.04
1.09
1.08
1.11
1.18
1.20
1.18
1.10
1.00
0.95
0.95
1.03
1.08
1.12
1.25
1.17
1.06
1.14
1.25
1.23
1.08
0.89
0.72
0.73
0.86
1.03
1.09
1.10
1.09
1.12
1.15
1.10
1.03
0.93
0.94
1.06
1.07
0.95
0.98
1.08
1.11
1.11
1.18
1.17
1.11
1.11
1.15
1.14
1.14
1.13
1.08
1.03
1.01
0.94
0.94
0.92
0.97
0.98
0.95
1.00
1.01
1.01
1.09
1.10
1.08
1.09
1.11
1.13
1.15
1.18
1.15
1.09
1.08
1.02
0.93
0.90
0.95
0.94
0.98
1.04
1.08
1.06
1.05
1.14
1.19
1.20
1.18
1.11
1.16
1.17
1.13
1.09
1.07
0.96
0.86
0.86
0.94
0.98
1.00
1.09
1.15
1.21
1.22
1.20
1.19
1.09
0.96
0.86
0.81
0.90
0.96
0.96
1.00
1.19
1.31
1.26
1.22
1.17
0.97
0.93
1.00
1.00
1.04
1.08
1.02
1.03
1.05
1.09
1.10
1.06
1.01
0.94
0.91
1.00
1.12
1.09
1.12
1.19
1.25
1.21
1.12
1.05
1.01
1.02
1.07
1.06
1.10
1.12
1.06
0.94
0.87
0.94
1.00
0.99
1.04
1.04
1.01
1.09
1.13
1.04
1.00
1.07
1.09
1.09
1.08
0.93
0.81
0.94
1.08
1.09
1.06
1.11
1.14
1.22
1.14
1.07
0.97
0.94
0.98
1.05
1.07
1.20
1.32
1.32
1.28
0.98
0.92
0.94
1.00
0.95
0.96
1.14
1.18
1.19
1.22
1.12
1.10
1.08
1.02
0.95
0.89
0.78
0.79
0.87
0.98
1.08
1.10
1.22
1.22
1.08
1.08
1.20
1.22
1.11
1.01
0.99
0.96
0.92
0.93
1.01
1.09
1.18
1.27
1.19
1.10
1.19
1.22
1.10
1.00
0.86
0.72
0.81
1.01
1.17
1.22
1.24
1.20
1.14
1.09
1.01
0.85
0.77
0.88
0.97
1.02
1.05
1.09
1.06
1.05
1.08
1.08
1.08
1.16
1.18
1.10
1.09
1.08
1.03
1.00
1.02
1.02
1.00
1.07
1.14
1.15
1.13
1.12
1.09
1.11
1.10
1.09
0.99
0.88
0.96
0.98
1.04
1.17
1.22
1.21
1.22
1.21
1.21
1.10
1.02
1.00
0.98
1.07
1.14
1.21
1.14
1.16
1.24
1.20
0.99
0.61
0.46
0.67
0.84
0.93
1.11
1.23
1.20
1.23
1.30
1.22
0.96
0.87
0.87
0.83
0.84
0.86
0.87
1.04
1.32
1.36
1.32
1.24
1.21
1.15
1.09
1.12
1.13
1.02
1.00
0.98
0.98
1.08
1.13
1.17
1.16
1.21
1.18
1.02
0.96
0.95
0.87
0.86
0.91
0.95
1.04
1.04
1.01
0.97
1.02
1.09
1.13
1.13
1.20
1.14
0.91
0.92
0.99
0.99
0.97
0.97
1.04
1.08
1.15
1.18
1.10
1.07
1.14
1.18
1.17
1.06
0.98
0.96
1.01
1.09
1.14
1.15
1.19
1.18
1.13
1.19
1.25
1.24
1.11
1.07
1.05
1.01
1.08
1.09
1.02
1.01
0.94
1.01
1.07
1.13
1.12
1.08
1.09
1.03
1.00
1.08
1.04
1.00
0.98
0.87
0.87
0.97
1.04
1.04
0.98
1.01
1.00
0.82
0.84
1.06
1.09
1.11
1.12
1.24
1.23
1.13
1.14
1.19
1.13
1.04
0.92
0.76
0.95
1.11
1.20
1.24
1.20
1.12
1.05
1.06
1.03
0.97
0.90
0.92
0.96
1.05
1.04
0.95
0.81
0.85
0.99
1.14
1.22
1.28
1.36
1.18
0.93
0.90
1.02
1.07
1.09
1.15
1.17
1.15
1.16
1.12
1.08
1.07
1.03
1.03
0.98
0.97
0.96
0.98
1.08
1.09
1.09
1.18
1.24
1.15
1.11
1.09
1.10
1.11
1.09
1.02
0.89
0.88
1.06
1.10
1.07
1.13
1.14
1.13
1.08
1.04
0.92
0.94
0.96
0.95
1.01
1.10
1.07
1.14
1.26
1.28
1.15
1.07
1.09
0.98
0.90
0.96
1.00
0.98
0.94
0.97
1.09
1.09
1.00
0.99
1.00
1.08
1.06
1.06
1.13
1.11
0.99
0.98
1.03
1.07
1.09
1.13
1.13
1.05
1.08
1.13
1.13
1.07
1.07
1.10
1.17
1.10
1.07
1.01
0.97
0.97
0.98
1.09
1.24
1.37
1.28
1.11
0.92
0.85
0.94
1.04
1.04
1.07
1.11
1.08
1.05
0.94
0.92
0.96
1.06
1.09
1.12
1.11
1.10
1.11
1.07
1.02
1.00
0.94
0.87
1.00
1.13
1.06
0.99
1.11
1.25
1.20
1.12
1.11
1.01
0.92
0.97
0.97
1.03
0.99
0.97
0.97
0.99
1.05
1.09
1.09
1.20
1.14
1.14
1.17
1.16
1.12
1.06
1.12
1.14
1.16
1.15
1.01
0.88
0.85
0.74
0.78
0.85
0.99
1.10
1.11
1.14
1.20
1.16
1.12
1.09
0.96
0.95
1.02
1.07
1.07
1.09
1.14
1.13
1.13
1.22
1.28
1.27
1.23
1.16
1.11
0.98
0.90
0.91
1.01
1.08
1.14
1.13
1.18
1.17
0.95
0.85
0.90
0.97
1.05
1.09
1.16
1.05
0.97
0.99
0.93
0.93
1.01
1.02
1.05
0.99
0.96
0.94
0.97
0.99
1.11
1.18
1.22
1.12
0.85
0.82
1.02
1.18
1.23
1.17
1.06
1.01
1.04
1.09
1.08
1.04
1.08
1.09
1.10
1.06
1.09
1.07
1.06
1.13
1.21
1.17
1.19
1.23
1.09
0.95
0.94
0.97
1.02
1.08
1.09
1.09
1.07
1.00
0.95
0.97
1.00
1.04
1.02
1.02
1.00
0.98
1.02
1.06
1.05
1.09
1.20
1.18
1.20
1.24
1.22
1.11
0.98
0.88
0.91
1.02
1.09
1.05
1.04
1.18
1.19
1.07
1.01
1.01
1.07
1.11
1.10
1.00
0.90
0.96
1.06
1.09
1.14
1.19
1.28
1.25
1.21
1.22
1.12
1.03
0.81
0.62
0.62
0.81
0.87
0.96
1.00
1.12
1.17
1.22
1.25
1.18
1.04
0.98
0.95
0.79
0.84
1.01
1.15
1.17
1.16
1.16
1.17
1.18
1.21
1.18
1.11
1.14
1.17
1.21
1.16
1.13
1.09
1.00
0.92
0.90
0.96
1.06
1.17
1.10
0.95
0.90
0.91
0.89
0.94
0.96
0.96
1.14
1.19
1.16
1.13
1.06
1.04
0.99
1.05
1.19
1.19
1.07
1.08
1.11
1.07
0.99
0.72
0.77
1.05
1.25
1.33
1.28
1.20
1.13
1.09
1.08
1.00
0.98
1.03
1.02
0.99
0.89
0.88
0.87
0.93
1.07
1.19
1.26
1.29
1.24
1.12
1.09
1.16
1.23
1.17
1.10
0.99
0.90
0.86
0.91
0.94
0.90
0.97
1.01
1.06
1.02
1.04
1.04
1.03
1.04
1.06
1.04
1.07
1.13
1.07
1.08
1.13
1.16
1.19
1.19
1.16
1.03
0.99
1.02
1.07
1.07
1.12
1.09
1.02
0.94
0.96
1.01
1.05
1.02
1.04
1.04
1.05
1.12
1.01
0.96
1.02
1.21
1.35
1.37
1.26
1.01
0.83
0.87
0.94
0.95
0.98
1.08
1.04
1.08
1.03
0.97
0.99
1.04
1.02
1.06
1.18
1.10
1.09
1.17
1.15
1.10
1.09
1.10
1.00
0.99
1.00
0.99
0.93
0.96
0.94
1.06
1.11
1.17
1.23
1.28
1.29
1.19
0.94
0.85
0.91
0.84
0.86
0.98
1.11
1.12
1.18
1.25
1.18
1.11
1.15
1.09
0.95
0.94
0.93
1.01
1.01
1.11
1.17
1.11
1.06
1.06
1.02
0.99
1.05
1.05
1.12
1.20
1.21
1.01
0.87
0.88
0.90
0.96
1.02
1.05
1.10
1.16
1.14
1.12
1.02
0.99
1.04
1.04
1.02
1.04
0.96
0.97
1.08
1.14
1.19
1.24
1.22
1.17
1.19
1.31
1.33
1.20
1.03
0.94
0.88
0.87
0.81
0.87
0.96
1.04
1.15
1.32
1.22
1.09
1.03
1.04
0.96
0.85
0.87
0.91
0.88
0.84
0.94
1.01
1.05
1.19
1.32
1.32
1.29
1.15
1.00
0.84
0.85
0.88
0.88
1.04
1.20
1.11
0.88
0.93
0.92
1.00
1.23
1.32
1.24
1.19
1.14
1.03
0.91
0.95
0.97
0.93
1.01
1.09
1.17
1.19
1.20
1.18
1.09
1.01
0.99
1.09
1.23
1.34
1.36
1.31
1.30
1.11
0.85
0.85
0.93
0.92
0.85
0.76
0.83
0.90
1.06
1.13
1.10
1.06
1.09
1.03
0.97
0.90
0.88
0.83
0.79
0.87
0.90
1.11
1.31
1.40
1.33
1.27
1.20
1.14
1.13
1.21
1.17
1.09
1.07
1.01
1.00
0.89
0.93
1.05
1.06
1.08
1.11
1.12
1.10
1.01
0.92
1.04
1.20
1.30
1.38
1.37
1.18
0.96
0.71
0.55
0.61
0.74
0.97
1.18
1.24
1.28
1.28
1.22
1.10
1.01
0.96
0.99
1.09
1.00
1.00
1.15
1.26
1.09
0.99
1.00
0.89
0.87
0.94
1.04
1.09
1.14
1.24
1.24
1.11
0.94
0.87
0.84
0.85
0.95
1.01
1.10
1.30
1.30
1.42
1.39
1.18
0.86
0.65
0.63
0.71
0.80
1.07
1.20
1.23
1.31
1.33
1.33
1.31
1.33
1.22
1.08
1.06
0.96
0.74
0.61
0.72
0.85
0.98
1.16
1.29
1.29
1.28
1.34
1.45
1.43
1.33
1.07
0.59
0.33
0.42
0.65
0.79
0.99
1.11
1.17
1.22
1.18
1.08
1.06
1.13
1.09
1.12
1.14
1.16
1.15
1.19
1.21
1.06
1.01
0.96
0.90
1.02
1.09
1.08
1.06
1.07
1.12
1.09
1.08
1.08
1.05
1.03
1.11
1.08
0.99
0.95
1.05
1.06
1.09
1.15
1.19
1.15
1.13
1.06
0.94
0.98
1.05
1.16
1.15
1.04
0.95
0.86
0.78
0.87
0.95
1.08
1.18
1.10
1.03
1.02
1.10
1.13
1.14
1.16
1.08
1.04
1.04
1.05
1.14
1.17
1.24
1.28
1.24
1.20
1.15
1.08
1.11
1.13
1.11
1.02
0.95
0.79
0.65
0.75
0.94
1.04
1.01
0.96
0.95
0.93
1.02
1.14
1.14
1.12
1.07
1.08
1.01
1.02
1.09
1.18
1.17
1.15
1.09
1.05
1.15
1.17
1.19
1.17
1.14
1.13
1.07
1.04
1.22
1.32
0.84
0.60
0.63
0.76
0.91
0.96
1.02
1.06
1.08
1.15
1.19
1.14
1.07
1.06
0.95
0.85
1.00
1.18
1.25
1.24
1.28
1.22
1.07
1.11
1.11
1.06
0.96
0.93
0.96
0.97
0.97
0.96
1.00
1.12
1.25
1.26
1.18
1.21
1.11
0.97
0.93
0.96
0.95
0.99
1.02
1.05
1.05
1.06
1.06
1.03
1.08
1.20
1.28
1.19
1.11
0.97
0.84
0.83
0.92
1.09
1.14
1.17
1.13
1.04
1.03
1.00
0.95
1.00
1.13
1.15
1.09
1.07
1.01
0.98
1.06
1.21
1.38
1.45
1.42
1.19
0.77
0.63
0.68
0.69
0.87
1.20
1.34
1.34
1.30
1.17
0.97
0.84
0.84
0.87
0.92
1.11
1.20
1.09
1.04
1.03
0.77
0.76
0.84
0.89
1.05
1.24
1.24
1.27
1.41
1.41
1.30
1.22
1.09
0.90
0.79
0.82
0.88
1.07
1.29
1.38
1.23
1.11
1.09
1.10
1.08
1.02
0.94
0.84
0.79
0.83
0.83
0.95
1.19
1.32
1.29
1.25
1.26
1.19
1.00
0.83
0.74
0.81
0.93
1.04
1.02
1.04
1.12
1.12
1.13
1.10
1.06
0.98
0.98
1.02
1.06
1.12
1.17
1.10
1.02
1.08
1.19
1.23
1.19
1.08
1.02
1.02
1.08
1.15
1.16
1.13
0.98
0.84
0.87
0.92
1.01
1.07
1.07
1.12
1.15
1.19
1.22
1.16
1.03
0.90
0.85
0.86
0.91
1.03
1.10
1.22
1.44
1.41
1.32
1.26
1.15
0.99
0.78
0.68
0.67
0.75
1.04
1.08
1.01
1.13
1.18
1.20
1.22
1.11
0.96
0.95
1.03
1.08
1.12
1.11
1.00
0.88
0.95
1.01
1.10
1.26
1.32
1.24
1.20
1.17
1.20
1.09
1.07
1.22
1.24
1.19
1.06
0.97
0.97
0.89
0.80
0.73
0.81
0.93
0.97
0.95
0.98
1.03
1.05
1.12
1.13
1.00
0.85
0.84
0.89
0.90
0.93
1.08
1.17
1.22
1.30
1.37
1.36
1.30
1.22
1.13
1.13
1.32
1.29
1.09
0.83
0.71
0.71
0.81
1.05
1.23
1.23
1.17
1.15
1.09
0.98
1.03
1.07
1.05
1.01
0.96
0.96
0.97
0.97
0.98
1.00
1.10
1.16
1.10
1.12
1.23
1.17
1.05
1.07
1.06
1.05
1.07
0.93
0.84
0.87
0.99
1.03
1.18
1.24
1.21
1.23
1.22
1.09
0.90
0.91
1.03
0.98
0.98
1.07
1.07
1.09
1.17
1.24
1.17
1.15
1.25
1.26
1.17
1.18
1.21
1.11
0.85
0.71
0.72
0.74
0.76
0.76
0.85
0.98
1.17
1.20
1.19
1.20
1.10
1.00
0.95
0.97
0.91
0.96
1.09
1.07
1.13
1.36
1.37
1.15
1.00
1.00
1.10
1.13
1.20
1.26
1.27
1.23
1.20
1.13
1.11
1.01
0.86
0.73
0.64
0.69
0.81
0.95
1.14
1.18
1.16
1.16
1.06
0.95
0.99
1.01
1.04
0.97
0.90
0.98
0.96
1.03
1.21
1.31
1.29
1.22
1.05
0.98
0.87
0.92
0.93
0.98
1.13
1.15
1.11
1.18
1.18
1.10
1.10
1.16
1.15
1.11
1.07
1.08
1.16
1.26
1.23
1.19
1.16
1.00
0.97
0.99
1.04
1.01
0.94
0.88
0.87
0.92
1.07
1.18
1.17
1.14
1.11
1.03
0.93
1.02
1.08
1.09
1.17
1.20
1.01
0.78
0.72
0.78
0.91
0.95
1.05
1.06
1.08
1.21
1.35
1.35
1.20
1.00
0.82
0.80
0.93
1.00
1.06
1.16
1.21
1.14
1.08
1.13
1.11
1.35
1.55
1.50
1.35
1.01
0.58
0.26
0.35
0.77
1.11
1.30
1.39
1.34
1.13
1.05
0.99
0.91
0.87
0.95
1.00
1.02
1.07
1.11
1.05
0.99
0.96
0.94
0.90
0.93
1.00
1.08
1.03
1.09
1.16
1.21
1.41
1.45
1.38
1.27
1.13
0.97
0.85
0.79
0.79
0.81
0.96
1.16
1.19
1.27
1.25
1.19
1.10
1.09
1.03
1.02
1.23
1.53
1.75
1.80
1.52
1.02
0.55
0.12
0.10
0.29
0.62
1.03
1.35
1.41
1.36
1.15
0.89
0.73
0.69
0.89
0.99
1.02
1.03
0.98
0.87
0.78
0.79
0.98
1.11
1.27
1.54
1.60
1.55
1.45
1.33
1.09
0.79
0.79
0.95
0.99
1.05
1.11
1.09
1.12
1.21
1.29
1.19
1.14
1.10
0.98
0.82
0.74
0.83
0.95
1.19
1.42
1.34
1.14
1.08
0.96
0.74
0.70
0.82
0.88
1.03
1.21
1.13
1.02
1.01
1.10
1.06
1.02
0.97
0.90
0.91
1.05
1.08
0.98
1.01
1.10
1.15
1.23
1.36
1.40
1.32
1.25
1.09
0.87
0.87
1.14
1.32
1.43
1.35
1.17
1.01
0.90
0.68
0.64
0.79
1.00
1.02
1.00
1.22
1.26
1.11
0.95
0.87
0.77
0.69
0.76
0.87
1.00
1.10
1.09
1.12
1.07
0.97
0.83
0.75
0.89
1.14
1.36
1.50
1.52
1.36
1.19
1.12
1.08
1.10
1.12
1.09
0.94
0.78
0.85
0.95
1.00
1.12
1.14
1.14
1.14
1.17
1.02
0.97
0.95
0.88
0.83
0.82
0.95
1.05
1.19
1.24
1.23
1.14
1.15
1.16
1.08
1.07
1.09
1.06
1.06
1.09
1.07
1.07
1.11
1.22
1.20
1.15
1.10
0.93
0.68
0.78
1.01
1.04
1.17
1.33
1.31
1.17
1.09
1.03
0.98
0.99
1.00
0.94
0.92
1.04
1.10
1.10
1.00
0.97
1.06
1.12
1.25
1.12
1.04
1.01
1.02
1.04
1.03
1.13
1.17
1.14
1.01
0.87
0.91
0.99
1.06
1.01
0.95
0.96
1.05
1.03
1.05
1.00
0.95
0.91
0.96
1.04
1.28
1.41
1.30
1.54
1.58
1.20
0.97
0.76
0.61
0.60
0.83
1.09
1.29
1.32
1.30
1.19
1.07
0.94
0.95
0.90
1.04
1.13
1.05
0.94
0.92
0.83
0.72
0.79
0.93
1.21
1.32
1.30
1.24
1.08
1.05
1.06
1.00
0.98
1.02
0.98
1.02
1.01
1.05
1.00
0.87
0.89
0.94
1.00
1.14
1.24
1.22
1.19
1.18
1.15
1.04
1.02
1.00
0.97
1.15
1.37
1.39
1.33
1.26
1.05
0.81
0.62
0.63
0.71
0.99
1.28
1.49
1.40
1.26
1.25
1.12
1.02
0.92
0.85
0.82
0.83
0.81
0.94
1.12
1.21
1.22
1.23
1.03
0.93
0.86
0.84
0.87
0.94
1.11
1.19
1.23
1.25
1.11
0.79
0.97
1.29
1.46
1.27
1.10
1.15
1.09
0.91
0.80
0.67
0.77
0.93
0.95
1.03
1.06
1.17
1.16
1.04
0.94
0.77
0.71
0.85
1.01
1.11
1.25
1.32
1.28
1.19
1.19
1.13
1.10
1.11
1.09
0.99
0.90
1.01
1.11
1.24
1.21
1.21
1.14
1.03
0.98
0.96
0.89
1.00
1.23
1.34
1.40
1.33
1.24
1.10
0.93
0.79
0.82
1.09
1.22
1.29
1.30
1.29
1.13
1.02
0.90
0.87
0.88
0.83
0.87
0.89
0.92
0.96
1.07
1.07
1.08
